"8731","16:25:41.377","0.0","0.0"
"8731","16:25:41.378","0.0","0.0"
"8732","16:25:41.381","0.0","0.0"
"8732","16:25:41.381","0.0","0.0"
"8733","16:25:41.384","0.0","0.0"
"8733","16:25:41.384","0.0","0.0"
"8734","16:25:41.386","0.0","0.0"
"8734","16:25:41.386","0.0","0.0"
"8735","16:25:41.390","0.0","0.0"
"8735","16:25:41.390","0.0","0.0"
"8736","16:25:41.392","0.0","0.0"
"8736","16:25:41.392","0.0","0.0"
"8737","16:25:41.394","0.0","0.0"
"8737","16:25:41.394","0.0","0.0"
"8738","16:25:41.396","0.0","0.0"
"8738","16:25:41.396","0.0","0.0"
"8739","16:25:41.397","0.0","0.0"
"8739","16:25:41.398","0.0","0.0"
"8740","16:25:41.400","0.0","0.0"
"8740","16:25:41.400","0.0","0.0"
"8741","16:25:41.402","0.0","0.0"
"8741","16:25:41.402","0.0","0.0"
"8742","16:25:41.434","0.0","0.0"
"8742","16:25:41.435","0.0","0.0"
"8743","16:25:41.436","0.0","0.0"
"8743","16:25:41.436","0.0","0.0"
"8744","16:25:41.455","0.0","0.0"
"8744","16:25:41.455","0.0","0.0"
"8745","16:25:41.457","0.0","0.0"
"8745","16:25:41.457","0.0","0.0"
"8746","16:25:41.473","0.0","0.0"
"8746","16:25:41.474","0.0","0.0"
"8748","16:25:41.476","0.0","0.0"
"8748","16:25:41.476","0.0","0.0"
"8749","16:25:41.492","0.0","0.0"
"8749","16:25:41.493","0.0","0.0"
"8750","16:25:41.494","0.0","0.0"
"8750","16:25:41.494","0.0","0.0"
"8751","16:25:41.496","0.0","0.0"
"8751","16:25:41.496","0.0","0.0"
"8752","16:25:41.498","0.0","0.0"
"8752","16:25:41.498","0.0","0.0"
"8753","16:25:41.500","0.0","0.0"
"8753","16:25:41.500","0.0","0.0"
"8754","16:25:41.502","0.0","0.0"
"8754","16:25:41.502","0.0","0.0"
"8755","16:25:41.504","0.0","0.0"
"8755","16:25:41.504","0.0","0.0"
"8756","16:25:41.505","0.0","0.0"
"8756","16:25:41.506","0.0","0.0"
"8757","16:25:41.507","0.0","0.0"
"8757","16:25:41.507","0.0","0.0"
"8758","16:25:41.509","0.0","0.0"
"8758","16:25:41.509","0.0","0.0"
"8759","16:25:41.511","0.0","0.0"
"8759","16:25:41.511","0.0","0.0"
"8760","16:25:41.512","0.0","0.0"
"8760","16:25:41.512","0.0","0.0"
"8761","16:25:41.514","0.0","0.0"
"8761","16:25:41.514","0.0","0.0"
"8762","16:25:41.515","0.0","0.0"
"8762","16:25:41.515","0.0","0.0"
"8763","16:25:41.517","0.0","0.0"
"8763","16:25:41.517","0.0","0.0"
"8764","16:25:41.519","0.0","0.0"
"8764","16:25:41.520","0.0","0.0"
"8766","16:25:41.522","0.0","0.0"
"8766","16:25:41.522","0.0","0.0"
"8767","16:25:41.524","0.0","0.0"
"8767","16:25:41.524","0.0","0.0"
"8768","16:25:41.525","0.0","0.0"
"8768","16:25:41.525","0.0","0.0"
"8769","16:25:41.527","0.0","0.0"
"8769","16:25:41.527","0.0","0.0"
"8770","16:25:41.528","0.0","0.0"
"8770","16:25:41.529","0.0","0.0"
"8771","16:25:41.530","0.0","0.0"
"8771","16:25:41.530","0.0","0.0"
"8772","16:25:41.532","0.0","0.0"
"8772","16:25:41.532","0.0","0.0"
"8773","16:25:41.533","0.0","0.0"
"8773","16:25:41.533","0.0","0.0"
"8774","16:25:41.535","0.0","0.0"
"8774","16:25:41.535","0.0","0.0"
"8775","16:25:41.536","0.0","0.0"
"8775","16:25:41.536","0.0","0.0"
"8776","16:25:41.538","0.0","0.0"
"8776","16:25:41.538","0.0","0.0"
"8777","16:25:41.539","0.0","0.0"
"8777","16:25:41.539","0.0","0.0"
"8778","16:25:41.541","0.0","0.0"
"8778","16:25:41.541","0.0","0.0"
"8779","16:25:41.542","0.0","0.0"
"8779","16:25:41.542","0.0","0.0"
"8780","16:25:41.544","0.0","0.0"
"8780","16:25:41.544","0.0","0.0"
"8781","16:25:41.545","0.0","0.0"
"8781","16:25:41.545","0.0","0.0"
"8782","16:25:41.547","0.0","0.0"
"8782","16:25:41.548","0.0","0.0"
"8784","16:25:41.550","0.0","0.0"
"8784","16:25:41.550","0.0","0.0"
"8785","16:25:41.551","0.0","0.0"
"8785","16:25:41.551","0.0","0.0"
"8786","16:25:41.553","0.0","0.0"
"8786","16:25:41.553","0.0","0.0"
"8787","16:25:41.554","0.0","0.0"
"8787","16:25:41.554","0.0","0.0"
"8788","16:25:41.555","0.0","0.0"
"8788","16:25:41.556","0.0","0.0"
"8789","16:25:41.557","0.0","0.0"
"8789","16:25:41.557","0.0","0.0"
"8790","16:25:41.559","0.0","0.0"
"8790","16:25:41.559","0.0","0.0"
"8791","16:25:41.560","0.0","0.0"
"8791","16:25:41.560","0.0","0.0"
"8792","16:25:41.562","0.0","0.0"
"8792","16:25:41.562","0.0","0.0"
"8793","16:25:41.563","0.0","0.0"
"8793","16:25:41.563","0.0","0.0"
"8794","16:25:41.565","0.0","0.0"
"8794","16:25:41.565","0.0","0.0"
"8795","16:25:41.566","0.0","0.0"
"8795","16:25:41.566","0.0","0.0"
"8796","16:25:41.568","0.0","0.0"
"8796","16:25:41.568","0.0","0.0"
"8797","16:25:41.569","0.0","0.0"
"8797","16:25:41.569","0.0","0.0"
"8798","16:25:41.571","0.0","0.0"
"8798","16:25:41.571","0.0","0.0"
"8799","16:25:41.572","0.0","0.0"
"8799","16:25:41.573","0.0","0.0"
"8800","16:25:41.574","0.0","0.0"
"8800","16:25:41.576","0.0","0.0"
"8802","16:25:41.578","0.0","0.0"
"8802","16:25:41.578","0.0","0.0"
"8803","16:25:41.579","0.0","0.0"
"8803","16:25:41.580","0.0","0.0"
"8804","16:25:41.581","0.0","0.0"
"8804","16:25:41.582","0.0","0.0"
"8805","16:25:41.583","0.0","0.0"
"8805","16:25:41.583","0.0","0.0"
"8806","16:25:41.584","0.0","0.0"
"8806","16:25:41.585","0.0","0.0"
"8807","16:25:41.586","0.0","0.0"
"8807","16:25:41.586","0.0","0.0"
"8808","16:25:41.587","0.0","0.0"
"8808","16:25:41.588","0.0","0.0"
"8809","16:25:41.589","0.0","0.0"
"8809","16:25:41.589","0.0","0.0"
"8810","16:25:41.591","0.0","0.0"
"8810","16:25:41.591","0.0","0.0"
"8811","16:25:41.592","0.0","0.0"
"8811","16:25:41.593","0.0","0.0"
"8812","16:25:41.594","0.0","0.0"
"8812","16:25:41.594","0.0","0.0"
"8813","16:25:41.596","0.0","0.0"
"8813","16:25:41.596","0.0","0.0"
"8814","16:25:41.598","0.0","0.0"
"8814","16:25:41.598","0.0","0.0"
"8815","16:25:41.600","0.0","0.0"
"8815","16:25:41.600","0.0","0.0"
"8816","16:25:41.601","0.0","0.0"
"8816","16:25:41.601","0.0","0.0"
"8817","16:25:41.603","0.0","0.0"
"8817","16:25:41.603","0.0","0.0"
"8818","16:25:41.604","0.0","0.0"
"8818","16:25:41.606","0.0","0.0"
"8820","16:25:41.625","0.0","0.0"
"8820","16:25:41.625","0.0","0.0"
"8821","16:25:41.627","0.0","0.0"
"8821","16:25:41.628","0.0","0.0"
"8822","16:25:41.631","0.0","0.0"
"8822","16:25:41.631","0.0","0.0"
"8823","16:25:41.634","0.0","0.0"
"8823","16:25:41.635","0.0","0.0"
"8824","16:25:41.639","0.0","0.0"
"8824","16:25:41.639","0.0","0.0"
"8825","16:25:41.641","0.0","0.0"
"8825","16:25:41.641","0.0","0.0"
"8826","16:25:41.643","0.0","0.0"
"8826","16:25:41.644","0.0","0.0"
"8827","16:25:41.646","0.0","0.0"
"8827","16:25:41.646","0.0","0.0"
"8828","16:25:41.648","0.0","0.0"
"8828","16:25:41.648","0.0","0.0"
"8829","16:25:41.651","0.0","0.0"
"8829","16:25:41.651","0.0","0.0"
"8830","16:25:41.653","0.0","0.0"
"8830","16:25:41.653","0.0","0.0"
"8831","16:25:41.657","0.0","0.0"
"8831","16:25:41.657","0.0","0.0"
"8832","16:25:41.659","0.0","0.0"
"8832","16:25:41.659","0.0","0.0"
"8833","16:25:41.661","0.0","0.0"
"8833","16:25:41.661","0.0","0.0"
"8834","16:25:41.662","0.0","0.0"
"8834","16:25:41.663","0.0","0.0"
"8835","16:25:41.664","0.0","0.0"
"8835","16:25:41.665","0.0","0.0"
"8836","16:25:41.667","0.0","0.0"
"8836","16:25:41.669","0.0","0.0"
"8838","16:25:41.671","0.0","0.0"
"8838","16:25:41.671","0.0","0.0"
"8839","16:25:41.673","0.0","0.0"
"8839","16:25:41.673","0.0","0.0"
"8840","16:25:41.675","0.0","0.0"
"8840","16:25:41.675","0.0","0.0"
"8841","16:25:41.677","0.0","0.0"
"8841","16:25:41.677","0.0","0.0"
"8842","16:25:41.679","0.0","0.0"
"8842","16:25:41.679","0.0","0.0"
"8843","16:25:41.681","0.0","0.0"
"8843","16:25:41.681","0.0","0.0"
"8844","16:25:41.683","0.0","0.0"
"8844","16:25:41.683","0.0","0.0"
"8845","16:25:41.685","0.0","0.0"
"8845","16:25:41.685","0.0","0.0"
"8846","16:25:41.686","0.0","0.0"
"8846","16:25:41.687","0.0","0.0"
"8847","16:25:41.688","0.0","0.0"
"8847","16:25:41.689","0.0","0.0"
"8848","16:25:41.697","0.0","0.0"
"8848","16:25:41.697","0.0","0.0"
"8849","16:25:41.699","0.0","0.0"
"8849","16:25:41.699","0.0","0.0"
"8850","16:25:41.701","0.0","0.0"
"8850","16:25:41.701","0.0","0.0"
"8851","16:25:41.704","0.0","0.0"
"8851","16:25:41.704","0.0","0.0"
"8852","16:25:41.706","0.0","0.0"
"8852","16:25:41.706","0.0","0.0"
"8853","16:25:41.708","0.0","0.0"
"8853","16:25:41.708","0.0","0.0"
"8854","16:25:41.711","0.0","0.0"
"8854","16:25:41.713","0.0","0.0"
"8856","16:25:41.752","0.0","0.0"
"8856","16:25:41.753","0.0","0.0"
"8857","16:25:41.756","0.0","0.0"
"8857","16:25:41.756","0.0","0.0"
"8858","16:25:41.769","0.0","0.0"
"8858","16:25:41.769","0.0","0.0"
"8859","16:25:41.772","0.0","0.0"
"8859","16:25:41.772","0.0","0.0"
"8860","16:25:41.774","0.0","0.0"
"8860","16:25:41.774","0.0","0.0"
"8861","16:25:41.776","0.0","0.0"
"8861","16:25:41.776","0.0","0.0"
"8862","16:25:41.786","0.0","0.0"
"8862","16:25:41.787","0.0","0.0"
"8863","16:25:41.810","0.0","0.0"
"8863","16:25:41.810","0.0","0.0"
"8864","16:25:41.812","0.0","0.0"
"8864","16:25:41.812","0.0","0.0"
"8865","16:25:41.814","0.0","0.0"
"8865","16:25:41.814","0.0","0.0"
"8866","16:25:41.817","0.0","0.0"
"8866","16:25:41.818","0.0","0.0"
"8867","16:25:41.821","0.0","0.0"
"8867","16:25:41.821","0.0","0.0"
"8868","16:25:41.824","0.0","0.0"
"8868","16:25:41.824","0.0","0.0"
"8869","16:25:41.828","0.0","0.0"
"8869","16:25:41.828","0.0","0.0"
"8870","16:25:41.831","0.0","0.0"
"8870","16:25:41.831","0.0","0.0"
"8871","16:25:41.842","0.0","0.0"
"8871","16:25:41.842","0.0","0.0"
"8872","16:25:41.844","0.0","0.0"
"8872","16:25:41.847","0.0","0.0"
"8874","16:25:41.917","0.0","0.0"
"8874","16:25:41.918","0.0","0.0"
"8875","16:25:41.920","0.0","0.0"
"8875","16:25:41.920","0.0","0.0"
"8876","16:25:41.935","0.0","0.0"
"8876","16:25:41.935","0.0","0.0"
"8877","16:25:41.939","0.0","0.0"
"8877","16:25:41.939","0.0","0.0"
"8878","16:25:41.967","0.0","0.0"
"8878","16:25:41.968","0.0","0.0"
"8879","16:25:41.974","0.0","0.0"
"8879","16:25:41.974","0.0","0.0"
"8880","16:25:41.976","0.0","0.0"
"8880","16:25:41.976","0.0","0.0"
"8881","16:25:41.980","0.0","0.0"
"8881","16:25:41.980","0.0","0.0"
"8882","16:25:41.982","0.0","0.0"
"8882","16:25:41.983","0.0","0.0"
"8883","16:25:41.984","0.0","0.0"
"8883","16:25:41.985","0.0","0.0"
"8884","16:25:41.994","0.0","0.0"
"8884","16:25:41.995","0.0","0.0"
"8885","16:25:41.997","0.0","0.0"
"8885","16:25:41.997","0.0","0.0"
"8886","16:25:41.999","0.0","0.0"
"8886","16:25:41.999","0.0","0.0"
"8887","16:25:42.001","0.0","0.0"
"8887","16:25:42.001","0.0","0.0"
"8888","16:25:42.004","0.0","0.0"
"8888","16:25:42.004","0.0","0.0"
"8889","16:25:42.015","0.0","0.0"
"8889","16:25:42.015","0.0","0.0"
"8890","16:25:42.017","0.0","0.0"
"8890","16:25:42.019","0.0","0.0"
"8892","16:25:42.085","0.0","0.0"
"8892","16:25:42.085","0.0","0.0"
"8893","16:25:42.104","0.0","0.0"
"8893","16:25:42.105","0.0","0.0"
"8894","16:25:42.107","0.0","0.0"
"8894","16:25:42.107","0.0","0.0"
"8895","16:25:42.110","0.0","0.0"
"8895","16:25:42.110","0.0","0.0"
"8896","16:25:42.112","0.0","0.0"
"8896","16:25:42.112","0.0","0.0"
"8897","16:25:42.119","0.0","0.0"
"8897","16:25:42.119","0.0","0.0"
"8898","16:25:42.122","0.0","0.0"
"8898","16:25:42.122","0.0","0.0"
"8899","16:25:42.143","0.0","0.0"
"8899","16:25:42.143","0.0","0.0"
"8900","16:25:42.145","0.0","0.0"
"8900","16:25:42.145","0.0","0.0"
"8901","16:25:42.147","0.0","0.0"
"8901","16:25:42.148","0.0","0.0"
"8902","16:25:42.165","0.0","0.0"
"8902","16:25:42.166","0.0","0.0"
"8903","16:25:42.168","0.0","0.0"
"8903","16:25:42.169","0.0","0.0"
"8904","16:25:42.171","0.0","0.0"
"8904","16:25:42.171","0.0","0.0"
"8905","16:25:42.174","0.0","0.0"
"8905","16:25:42.174","0.0","0.0"
"8906","16:25:42.176","0.0","0.0"
"8906","16:25:42.176","0.0","0.0"
"8907","16:25:42.187","0.0","0.0"
"8907","16:25:42.187","0.0","0.0"
"8908","16:25:42.189","0.0","0.0"
"8908","16:25:42.191","0.0","0.0"
"8910","16:25:42.256","0.0","0.0"
"8910","16:25:42.256","0.0","0.0"
"8911","16:25:42.259","0.0","0.0"
"8911","16:25:42.259","0.0","0.0"
"8912","16:25:42.273","0.0","0.0"
"8912","16:25:42.273","0.0","0.0"
"8913","16:25:42.275","0.0","0.0"
"8913","16:25:42.276","0.0","0.0"
"8914","16:25:42.278","0.0","0.0"
"8914","16:25:42.278","0.0","0.0"
"8915","16:25:42.285","0.0","0.0"
"8915","16:25:42.287","0.0","0.0"
"8916","16:25:42.290","0.0","0.0"
"8916","16:25:42.290","0.0","0.0"
"8917","16:25:42.310","0.0","0.0"
"8917","16:25:42.311","0.0","0.0"
"8918","16:25:42.313","0.0","0.0"
"8918","16:25:42.314","0.0","0.0"
"8919","16:25:42.316","0.0","0.0"
"8919","16:25:42.316","0.0","0.0"
"8920","16:25:42.337","0.0","0.0"
"8920","16:25:42.337","0.0","0.0"
"8921","16:25:42.339","0.0","0.0"
"8921","16:25:42.339","0.0","0.0"
"8922","16:25:42.343","0.0","0.0"
"8922","16:25:42.343","0.0","0.0"
"8923","16:25:42.347","0.0","0.0"
"8923","16:25:42.348","0.0","0.0"
"8924","16:25:42.350","0.0","0.0"
"8924","16:25:42.351","0.0","0.0"
"8925","16:25:42.353","0.0","0.0"
"8925","16:25:42.353","0.0","0.0"
"8926","16:25:42.362","0.0","0.0"
"8926","16:25:42.364","0.0","0.0"
"8928","16:25:42.423","0.0","0.0"
"8928","16:25:42.423","0.0","0.0"
"8929","16:25:42.435","0.0","0.0"
"8929","16:25:42.436","0.0","0.0"
"8930","16:25:42.438","0.0","0.0"
"8930","16:25:42.439","0.0","0.0"
"8931","16:25:42.442","0.0","0.0"
"8931","16:25:42.442","0.0","0.0"
"8932","16:25:42.464","0.0","0.0"
"8932","16:25:42.464","0.0","0.0"
"8933","16:25:42.466","0.0","0.0"
"8933","16:25:42.466","0.0","0.0"
"8934","16:25:42.469","0.0","0.0"
"8934","16:25:42.469","0.0","0.0"
"8935","16:25:42.471","0.0","0.0"
"8935","16:25:42.471","0.0","0.0"
"8936","16:25:42.474","0.0","0.0"
"8936","16:25:42.474","0.0","0.0"
"8937","16:25:42.488","0.0","0.0"
"8937","16:25:42.488","0.0","0.0"
"8938","16:25:42.490","0.0","0.0"
"8938","16:25:42.491","0.0","0.0"
"8939","16:25:42.495","0.0","0.0"
"8939","16:25:42.495","0.0","0.0"
"8940","16:25:42.497","0.0","0.0"
"8940","16:25:42.497","0.0","0.0"
"8941","16:25:42.515","0.0","0.0"
"8941","16:25:42.518","0.0","0.0"
"8942","16:25:42.521","0.0","0.0"
"8942","16:25:42.521","0.0","0.0"
"8943","16:25:42.543","0.0","0.0"
"8943","16:25:42.544","0.0","0.0"
"8944","16:25:42.545","0.0","0.0"
"8944","16:25:42.547","0.0","0.0"
"8946","16:25:42.594","0.0","0.0"
"8946","16:25:42.594","0.0","0.0"
"8947","16:25:42.597","0.0","0.0"
"8947","16:25:42.597","0.0","0.0"
"8948","16:25:42.607","0.0","0.0"
"8948","16:25:42.607","0.0","0.0"
"8949","16:25:42.612","0.0","0.0"
"8949","16:25:42.612","0.0","0.0"
"8950","16:25:42.630","0.0","0.0"
"8950","16:25:42.630","0.0","0.0"
"8951","16:25:42.632","0.0","0.0"
"8951","16:25:42.632","0.0","0.0"
"8952","16:25:42.637","0.0","0.0"
"8952","16:25:42.638","0.0","0.0"
"8953","16:25:42.641","0.0","0.0"
"8953","16:25:42.641","0.0","0.0"
"8954","16:25:42.656","0.0","0.0"
"8954","16:25:42.657","0.0","0.0"
"8955","16:25:42.660","0.0","0.0"
"8955","16:25:42.660","0.0","0.0"
"8956","16:25:42.664","0.0","0.0"
"8956","16:25:42.664","0.0","0.0"
"8957","16:25:42.667","0.0","0.0"
"8957","16:25:42.667","0.0","0.0"
"8958","16:25:42.670","0.0","0.0"
"8958","16:25:42.671","0.0","0.0"
"8959","16:25:42.682","0.0","0.0"
"8959","16:25:42.682","0.0","0.0"
"8960","16:25:42.688","0.0","0.0"
"8960","16:25:42.688","0.0","0.0"
"8961","16:25:42.690","0.0","0.0"
"8961","16:25:42.690","0.0","0.0"
"8962","16:25:42.711","0.0","0.0"
"8962","16:25:42.713","0.0","0.0"
"8964","16:25:42.760","0.0","0.0"
"8964","16:25:42.761","0.0","0.0"
"8965","16:25:42.776","0.0","0.0"
"8965","16:25:42.776","0.0","0.0"
"8966","16:25:42.779","0.0","0.0"
"8966","16:25:42.779","0.0","0.0"
"8967","16:25:42.781","0.0","0.0"
"8967","16:25:42.781","0.0","0.0"
"8968","16:25:42.810","0.0","0.0"
"8968","16:25:42.810","0.0","0.0"
"8969","16:25:42.812","0.0","0.0"
"8969","16:25:42.812","0.0","0.0"
"8970","16:25:42.814","0.0","0.0"
"8970","16:25:42.814","0.0","0.0"
"8971","16:25:42.832","0.0","0.0"
"8971","16:25:42.832","0.0","0.0"
"8972","16:25:42.840","0.0","0.0"
"8972","16:25:42.840","0.0","0.0"
"8973","16:25:42.842","0.0","0.0"
"8973","16:25:42.842","0.0","0.0"
"8974","16:25:42.860","0.0","0.0"
"8974","16:25:42.861","0.0","0.0"
"8975","16:25:42.862","0.0","0.0"
"8975","16:25:42.862","0.0","0.0"
"8976","16:25:42.864","0.0","0.0"
"8976","16:25:42.864","0.0","0.0"
"8977","16:25:42.868","0.0","0.0"
"8977","16:25:42.868","0.0","0.0"
"8978","16:25:42.873","0.0","0.0"
"8978","16:25:42.873","0.0","0.0"
"8979","16:25:42.878","0.0","0.0"
"8979","16:25:42.879","0.0","0.0"
"8980","16:25:42.928","0.0","0.0"
"8980","16:25:42.933","0.0","0.0"
"8982","16:25:42.939","0.0","0.0"
"8982","16:25:42.939","0.0","0.0"
"8983","16:25:42.942","0.0","0.0"
"8983","16:25:42.942","0.0","0.0"
"8984","16:25:42.944","0.0","0.0"
"8984","16:25:42.944","0.0","0.0"
"8985","16:25:42.954","0.0","0.0"
"8985","16:25:42.954","0.0","0.0"
"8986","16:25:42.956","0.0","0.0"
"8986","16:25:42.956","0.0","0.0"
"8987","16:25:42.958","0.0","0.0"
"8987","16:25:42.958","0.0","0.0"
"8988","16:25:42.979","0.0","0.0"
"8988","16:25:42.979","0.0","0.0"
"8989","16:25:42.981","0.0","0.0"
"8989","16:25:42.981","0.0","0.0"
"8990","16:25:42.985","0.0","0.0"
"8990","16:25:42.985","0.0","0.0"
"8991","16:25:43.008","0.0","0.0"
"8991","16:25:43.008","0.0","0.0"
"8992","16:25:43.010","0.0","0.0"
"8992","16:25:43.010","0.0","0.0"
"8993","16:25:43.017","0.0","0.0"
"8993","16:25:43.017","0.0","0.0"
"8994","16:25:43.037","0.0","0.0"
"8994","16:25:43.037","0.0","0.0"
"8995","16:25:43.039","0.0","0.0"
"8995","16:25:43.039","0.0","0.0"
"8996","16:25:43.041","0.0","0.0"
"8996","16:25:43.041","0.0","0.0"
"8997","16:25:43.042","0.0","0.0"
"8997","16:25:43.043","0.0","0.0"
"8998","16:25:43.047","0.0","0.0"
"8998","16:25:43.049","0.0","0.0"
"9000","16:25:43.118","0.0","0.0"
"9000","16:25:43.118","0.0","0.0"
"9001","16:25:43.137","0.0","0.0"
"9001","16:25:43.137","0.0","0.0"
"9002","16:25:43.139","0.0","0.0"
"9002","16:25:43.140","0.0","0.0"
"9003","16:25:43.142","0.0","0.0"
"9003","16:25:43.142","0.0","0.0"
"9004","16:25:43.144","0.0","0.0"
"9004","16:25:43.144","0.0","0.0"
"9005","16:25:43.145","0.0","0.0"
"9005","16:25:43.146","0.0","0.0"
"9006","16:25:43.158","0.0","0.0"
"9006","16:25:43.158","0.0","0.0"
"9007","16:25:43.160","0.0","0.0"
"9007","16:25:43.161","0.0","0.0"
"9008","16:25:43.162","0.0","0.0"
"9008","16:25:43.162","0.0","0.0"
"9009","16:25:43.181","0.0","0.0"
"9009","16:25:43.181","0.0","0.0"
"9010","16:25:43.183","0.0","0.0"
"9010","16:25:43.186","0.0","0.0"
"9011","16:25:43.190","0.0","0.0"
"9011","16:25:43.190","0.0","0.0"
"9012","16:25:43.192","0.0","0.0"
"9012","16:25:43.192","0.0","0.0"
"9013","16:25:43.225","0.0","0.0"
"9013","16:25:43.225","0.0","0.0"
"9014","16:25:43.228","0.0","0.0"
"9014","16:25:43.228","0.0","0.0"
"9015","16:25:43.243","0.0","0.0"
"9015","16:25:43.243","0.0","0.0"
"9016","16:25:43.245","0.0","0.0"
"9016","16:25:43.247","0.0","0.0"
"9018","16:25:43.323","0.0","0.0"
"9018","16:25:43.324","0.0","0.0"
"9019","16:25:43.326","0.0","0.0"
"9019","16:25:43.326","0.0","0.0"
"9020","16:25:43.340","0.0","0.0"
"9020","16:25:43.340","0.0","0.0"
"9021","16:25:43.345","0.0","0.0"
"9021","16:25:43.345","0.0","0.0"
"9022","16:25:43.347","0.0","0.0"
"9022","16:25:43.347","0.0","0.0"
"9023","16:25:43.349","0.0","0.0"
"9023","16:25:43.349","0.0","0.0"
"9024","16:25:43.352","0.0","0.0"
"9024","16:25:43.355","0.0","0.0"
"9025","16:25:43.360","0.0","0.0"
"9025","16:25:43.361","0.0","0.0"
"9026","16:25:43.364","0.0","0.0"
"9026","16:25:43.364","0.0","0.0"
"9027","16:25:43.371","0.0","0.0"
"9027","16:25:43.371","0.0","0.0"
"9028","16:25:43.374","0.0","0.0"
"9028","16:25:43.374","0.0","0.0"
"9029","16:25:43.381","0.0","0.0"
"9029","16:25:43.381","0.0","0.0"
"9030","16:25:43.384","0.0","0.0"
"9030","16:25:43.385","0.0","0.0"
"9031","16:25:43.387","0.0","0.0"
"9031","16:25:43.387","0.0","0.0"
"9032","16:25:43.389","0.0","0.0"
"9032","16:25:43.389","0.0","0.0"
"9033","16:25:43.393","0.0","0.0"
"9033","16:25:43.393","0.0","0.0"
"9034","16:25:43.405","0.0","0.0"
"9034","16:25:43.406","0.0","0.0"
"9036","16:25:43.434","0.0","0.0"
"9036","16:25:43.434","0.0","0.0"
"9037","16:25:43.479","0.0","0.0"
"9037","16:25:43.479","0.0","0.0"
"9038","16:25:43.481","0.0","0.0"
"9038","16:25:43.481","0.0","0.0"
"9039","16:25:43.483","0.0","0.0"
"9039","16:25:43.483","0.0","0.0"
"9040","16:25:43.514","0.0","0.0"
"9040","16:25:43.514","0.0","0.0"
"9041","16:25:43.517","0.0","0.0"
"9041","16:25:43.517","0.0","0.0"
"9042","16:25:43.519","0.0","0.0"
"9042","16:25:43.519","0.0","0.0"
"9043","16:25:43.521","0.0","0.0"
"9043","16:25:43.521","0.0","0.0"
"9044","16:25:43.523","0.0","0.0"
"9044","16:25:43.524","0.0","0.0"
"9045","16:25:43.537","0.0","0.0"
"9045","16:25:43.537","0.0","0.0"
"9046","16:25:43.539","0.0","0.0"
"9046","16:25:43.539","0.0","0.0"
"9047","16:25:43.541","0.0","0.0"
"9047","16:25:43.542","0.0","0.0"
"9048","16:25:43.575","0.0","0.0"
"9048","16:25:43.576","0.0","0.0"
"9049","16:25:43.578","0.0","0.0"
"9049","16:25:43.578","0.0","0.0"
"9050","16:25:43.580","0.0","0.0"
"9050","16:25:43.580","0.0","0.0"
"9051","16:25:43.582","0.0","0.0"
"9051","16:25:43.582","0.0","0.0"
"9052","16:25:43.584","0.0","0.0"
"9052","16:25:43.586","0.0","0.0"
"9054","16:25:43.653","0.0","0.0"
"9054","16:25:43.653","0.0","0.0"
"9055","16:25:43.655","0.0","0.0"
"9055","16:25:43.655","0.0","0.0"
"9056","16:25:43.657","0.0","0.0"
"9056","16:25:43.658","0.0","0.0"
"9057","16:25:43.661","0.0","0.0"
"9057","16:25:43.661","0.0","0.0"
"9058","16:25:43.663","0.0","0.0"
"9058","16:25:43.663","0.0","0.0"
"9059","16:25:43.666","0.0","0.0"
"9059","16:25:43.666","0.0","0.0"
"9060","16:25:43.691","0.0","0.0"
"9060","16:25:43.692","0.0","0.0"
"9061","16:25:43.694","0.0","0.0"
"9061","16:25:43.695","0.0","0.0"
"9062","16:25:43.697","0.0","0.0"
"9062","16:25:43.698","0.0","0.0"
"9063","16:25:43.700","0.0","0.0"
"9063","16:25:43.700","0.0","0.0"
"9064","16:25:43.703","0.0","0.0"
"9064","16:25:43.703","0.0","0.0"
"9065","16:25:43.705","0.0","0.0"
"9065","16:25:43.705","0.0","0.0"
"9066","16:25:43.719","0.0","0.0"
"9066","16:25:43.720","0.0","0.0"
"9067","16:25:43.721","0.0","0.0"
"9067","16:25:43.722","0.0","0.0"
"9068","16:25:43.723","0.0","0.0"
"9068","16:25:43.724","0.0","0.0"
"9069","16:25:43.726","0.0","0.0"
"9069","16:25:43.726","0.0","0.0"
"9070","16:25:43.728","0.0","0.0"
"9070","16:25:43.759","0.0","0.0"
"9072","16:25:43.803","0.0","0.0"
"9072","16:25:43.804","0.0","0.0"
"9073","16:25:43.806","0.0","0.0"
"9073","16:25:43.806","0.0","0.0"
"9074","16:25:43.810","0.0","0.0"
"9074","16:25:43.810","0.0","0.0"
"9075","16:25:43.812","0.0","0.0"
"9075","16:25:43.812","0.0","0.0"
"9076","16:25:43.843","0.0","0.0"
"9076","16:25:43.843","0.0","0.0"
"9077","16:25:43.845","0.0","0.0"
"9077","16:25:43.846","0.0","0.0"
"9078","16:25:43.848","0.0","0.0"
"9078","16:25:43.848","0.0","0.0"
"9079","16:25:43.850","0.0","0.0"
"9079","16:25:43.851","0.0","0.0"
"9080","16:25:43.853","0.0","0.0"
"9080","16:25:43.853","0.0","0.0"
"9081","16:25:43.855","0.0","0.0"
"9081","16:25:43.855","0.0","0.0"
"9082","16:25:43.885","0.0","0.0"
"9082","16:25:43.885","0.0","0.0"
"9083","16:25:43.887","0.0","0.0"
"9083","16:25:43.888","0.0","0.0"
"9084","16:25:43.891","0.0","0.0"
"9084","16:25:43.891","0.0","0.0"
"9085","16:25:43.894","0.0","0.0"
"9085","16:25:43.894","0.0","0.0"
"9086","16:25:43.896","0.0","0.0"
"9086","16:25:43.896","0.0","0.0"
"9087","16:25:43.898","0.0","0.0"
"9087","16:25:43.899","0.0","0.0"
"9088","16:25:43.930","0.0","0.0"
"9088","16:25:43.941","0.0","0.0"
"9090","16:25:43.968","0.0","0.0"
"9090","16:25:43.968","0.0","0.0"
"9091","16:25:43.971","0.0","0.0"
"9091","16:25:43.971","0.0","0.0"
"9092","16:25:44.000","0.0","0.0"
"9092","16:25:44.000","0.0","0.0"
"9093","16:25:44.002","0.0","0.0"
"9093","16:25:44.002","0.0","0.0"
"9094","16:25:44.004","0.0","0.0"
"9094","16:25:44.005","0.0","0.0"
"9095","16:25:44.006","0.0","0.0"
"9095","16:25:44.007","0.0","0.0"
"9096","16:25:44.009","0.0","0.0"
"9096","16:25:44.009","0.0","0.0"
"9097","16:25:44.011","0.0","0.0"
"9097","16:25:44.011","0.0","0.0"
"9098","16:25:44.023","0.0","0.0"
"9098","16:25:44.023","0.0","0.0"
"9099","16:25:44.025","0.0","0.0"
"9099","16:25:44.025","0.0","0.0"
"9100","16:25:44.027","0.0","0.0"
"9100","16:25:44.028","0.0","0.0"
"9101","16:25:44.029","0.0","0.0"
"9101","16:25:44.030","0.0","0.0"
"9102","16:25:44.033","0.0","0.0"
"9102","16:25:44.034","0.0","0.0"
"9103","16:25:44.059","0.0","0.0"
"9103","16:25:44.059","0.0","0.0"
"9104","16:25:44.061","0.0","0.0"
"9104","16:25:44.061","0.0","0.0"
"9105","16:25:44.063","0.0","0.0"
"9105","16:25:44.063","0.0","0.0"
"9106","16:25:44.065","0.0","0.0"
"9106","16:25:44.066","0.0","0.0"
"9108","16:25:44.131","0.0","0.0"
"9108","16:25:44.131","0.0","0.0"
"9109","16:25:44.133","0.0","0.0"
"9109","16:25:44.133","0.0","0.0"
"9110","16:25:44.156","0.0","0.0"
"9110","16:25:44.156","0.0","0.0"
"9111","16:25:44.158","0.0","0.0"
"9111","16:25:44.159","0.0","0.0"
"9112","16:25:44.161","0.0","0.0"
"9112","16:25:44.161","0.0","0.0"
"9113","16:25:44.163","0.0","0.0"
"9113","16:25:44.163","0.0","0.0"
"9114","16:25:44.165","0.0","0.0"
"9114","16:25:44.165","0.0","0.0"
"9115","16:25:44.179","0.0","0.0"
"9115","16:25:44.180","0.0","0.0"
"9116","16:25:44.181","0.0","0.0"
"9116","16:25:44.181","0.0","0.0"
"9117","16:25:44.183","0.0","0.0"
"9117","16:25:44.183","0.0","0.0"
"9118","16:25:44.213","0.0","0.0"
"9118","16:25:44.213","0.0","0.0"
"9119","16:25:44.218","0.0","0.0"
"9119","16:25:44.218","0.0","0.0"
"9120","16:25:44.224","0.0","0.0"
"9120","16:25:44.224","0.0","0.0"
"9121","16:25:44.249","0.0","0.0"
"9121","16:25:44.249","0.0","0.0"
"9122","16:25:44.251","0.0","0.0"
"9122","16:25:44.251","0.0","0.0"
"9123","16:25:44.253","0.0","0.0"
"9123","16:25:44.254","0.0","0.0"
"9124","16:25:44.255","0.0","0.0"
"9124","16:25:44.257","0.0","0.0"
"9126","16:25:44.327","0.0","0.0"
"9126","16:25:44.327","0.0","0.0"
"9127","16:25:44.331","0.0","0.0"
"9127","16:25:44.332","0.0","0.0"
"9128","16:25:44.336","0.0","0.0"
"9128","16:25:44.336","0.0","0.0"
"9129","16:25:44.339","0.0","0.0"
"9129","16:25:44.339","0.0","0.0"
"9130","16:25:44.341","0.0","0.0"
"9130","16:25:44.341","0.0","0.0"
"9131","16:25:44.344","0.0","0.0"
"9131","16:25:44.344","0.0","0.0"
"9132","16:25:44.345","0.0","0.0"
"9132","16:25:44.346","0.0","0.0"
"9133","16:25:44.349","0.0","0.0"
"9133","16:25:44.349","0.0","0.0"
"9134","16:25:44.351","0.0","0.0"
"9134","16:25:44.351","0.0","0.0"
"9135","16:25:44.354","0.0","0.0"
"9135","16:25:44.354","0.0","0.0"
"9136","16:25:44.367","0.0","0.0"
"9136","16:25:44.367","0.0","0.0"
"9137","16:25:44.372","0.0","0.0"
"9137","16:25:44.372","0.0","0.0"
"9138","16:25:44.375","0.0","0.0"
"9138","16:25:44.375","0.0","0.0"
"9139","16:25:44.398","0.0","0.0"
"9139","16:25:44.398","0.0","0.0"
"9140","16:25:44.400","0.0","0.0"
"9140","16:25:44.400","0.0","0.0"
"9141","16:25:44.401","0.0","0.0"
"9141","16:25:44.402","0.0","0.0"
"9142","16:25:44.403","0.0","0.0"
"9142","16:25:44.405","0.0","0.0"
"9144","16:25:44.472","0.0","0.0"
"9144","16:25:44.472","0.0","0.0"
"9145","16:25:44.508","0.0","0.0"
"9145","16:25:44.509","0.0","0.0"
"9146","16:25:44.511","0.0","0.0"
"9146","16:25:44.511","0.0","0.0"
"9147","16:25:44.513","0.0","0.0"
"9147","16:25:44.513","0.0","0.0"
"9148","16:25:44.515","0.0","0.0"
"9148","16:25:44.515","0.0","0.0"
"9149","16:25:44.517","0.0","0.0"
"9149","16:25:44.517","0.0","0.0"
"9150","16:25:44.534","0.0","0.0"
"9150","16:25:44.534","0.0","0.0"
"9151","16:25:44.537","0.0","0.0"
"9151","16:25:44.537","0.0","0.0"
"9155","16:25:44.579","0.0","0.0"
"9155","16:25:44.580","0.0","0.0"
"9156","16:25:44.582","0.0","0.0"
"9156","16:25:44.582","0.0","0.0"
"9157","16:25:44.583","0.0","0.0"
"9157","16:25:44.584","0.0","0.0"
"9158","16:25:44.585","0.0","0.0"
"9158","16:25:44.585","0.0","0.0"
"9159","16:25:44.587","0.0","0.0"
"9159","16:25:44.587","0.0","0.0"
"9160","16:25:44.607","0.0","0.0"
"9160","16:25:44.609","0.0","0.0"
"9162","16:25:44.635","0.0","0.0"
"9162","16:25:44.635","0.0","0.0"
"9163","16:25:44.640","0.0","0.0"
"9163","16:25:44.640","0.0","0.0"
"9164","16:25:44.642","0.0","0.0"
"9164","16:25:44.642","0.0","0.0"
"9165","16:25:44.644","0.0","0.0"
"9165","16:25:44.645","0.0","0.0"
"9166","16:25:44.659","0.0","0.0"
"9166","16:25:44.659","0.0","0.0"
"9167","16:25:44.661","0.0","0.0"
"9167","16:25:44.661","0.0","0.0"
"9168","16:25:44.676","0.0","0.0"
"9168","16:25:44.676","0.0","0.0"
"9169","16:25:44.678","0.0","0.0"
"9169","16:25:44.679","0.0","0.0"
"9170","16:25:44.680","0.0","0.0"
"9170","16:25:44.681","0.0","0.0"
"9171","16:25:44.692","0.0","0.0"
"9171","16:25:44.692","0.0","0.0"
"9172","16:25:44.708","0.0","0.0"
"9172","16:25:44.709","0.0","0.0"
"9173","16:25:44.711","0.0","0.0"
"9173","16:25:44.712","0.0","0.0"
"9174","16:25:44.716","0.0","0.0"
"9174","16:25:44.716","0.0","0.0"
"9175","16:25:44.724","0.0","0.0"
"9175","16:25:44.724","0.0","0.0"
"9176","16:25:44.729","0.0","0.0"
"9176","16:25:44.729","0.0","0.0"
"9177","16:25:44.732","0.0","0.0"
"9177","16:25:44.732","0.0","0.0"
"9178","16:25:44.741","0.0","0.0"
"9178","16:25:44.743","0.0","0.0"
"9180","16:25:44.804","0.0","0.0"
"9180","16:25:44.804","0.0","0.0"
"9181","16:25:44.824","0.0","0.0"
"9181","16:25:44.825","0.0","0.0"
"9182","16:25:44.826","0.0","0.0"
"9182","16:25:44.827","0.0","0.0"
"9183","16:25:44.829","0.0","0.0"
"9183","16:25:44.829","0.0","0.0"
"9184","16:25:44.831","0.0","0.0"
"9184","16:25:44.831","0.0","0.0"
"9185","16:25:44.833","0.0","0.0"
"9185","16:25:44.833","0.0","0.0"
"9186","16:25:44.839","0.0","0.0"
"9186","16:25:44.839","0.0","0.0"
"9187","16:25:44.859","0.0","0.0"
"9187","16:25:44.859","0.0","0.0"
"9188","16:25:44.862","0.0","0.0"
"9188","16:25:44.862","0.0","0.0"
"9189","16:25:44.864","0.0","0.0"
"9189","16:25:44.864","0.0","0.0"
"9190","16:25:44.866","0.0","0.0"
"9190","16:25:44.866","0.0","0.0"
"9191","16:25:44.872","0.0","0.0"
"9191","16:25:44.872","0.0","0.0"
"9192","16:25:44.875","0.0","0.0"
"9192","16:25:44.875","0.0","0.0"
"9193","16:25:44.891","0.0","0.0"
"9193","16:25:44.891","0.0","0.0"
"9194","16:25:44.894","0.0","0.0"
"9194","16:25:44.895","0.0","0.0"
"9195","16:25:44.896","0.0","0.0"
"9195","16:25:44.897","0.0","0.0"
"9196","16:25:44.906","0.0","0.0"
"9196","16:25:44.908","0.0","0.0"
"9198","16:25:44.973","0.0","0.0"
"9198","16:25:44.973","0.0","0.0"
"9199","16:25:44.989","0.0","0.0"
"9199","16:25:44.989","0.0","0.0"
"9200","16:25:44.991","0.0","0.0"
"9200","16:25:44.991","0.0","0.0"
"9201","16:25:44.993","0.0","0.0"
"9201","16:25:44.993","0.0","0.0"
"9202","16:25:45.024","0.0","0.0"
"9202","16:25:45.025","0.0","0.0"
"9203","16:25:45.031","0.0","0.0"
"9203","16:25:45.032","0.0","0.0"
"9204","16:25:45.034","0.0","0.0"
"9204","16:25:45.035","0.0","0.0"
"9205","16:25:45.039","0.0","0.0"
"9205","16:25:45.039","0.0","0.0"
"9206","16:25:45.041","0.0","0.0"
"9206","16:25:45.042","0.0","0.0"
"9207","16:25:45.044","0.0","0.0"
"9207","16:25:45.045","0.0","0.0"
"9208","16:25:45.058","0.0","0.0"
"9208","16:25:45.058","0.0","0.0"
"9209","16:25:45.060","0.0","0.0"
"9209","16:25:45.061","0.0","0.0"
"9210","16:25:45.063","0.0","0.0"
"9210","16:25:45.063","0.0","0.0"
"9211","16:25:45.076","0.0","0.0"
"9211","16:25:45.076","0.0","0.0"
"9212","16:25:45.078","0.0","0.0"
"9212","16:25:45.079","0.0","0.0"
"9213","16:25:45.081","0.0","0.0"
"9213","16:25:45.081","0.0","0.0"
"9214","16:25:45.094","0.0","0.0"
"9214","16:25:45.096","0.0","0.0"
"9216","16:25:45.162","0.0","0.0"
"9216","16:25:45.163","0.0","0.0"
"9217","16:25:45.165","0.0","0.0"
"9217","16:25:45.165","0.0","0.0"
"9218","16:25:45.172","0.0","0.0"
"9218","16:25:45.172","0.0","0.0"
"9219","16:25:45.175","0.0","0.0"
"9219","16:25:45.175","0.0","0.0"
"9220","16:25:45.193","0.0","0.0"
"9220","16:25:45.194","0.0","0.0"
"9221","16:25:45.199","0.0","0.0"
"9221","16:25:45.199","0.0","0.0"
"9222","16:25:45.209","0.0","0.0"
"9222","16:25:45.209","0.0","0.0"
"9223","16:25:45.226","0.0","0.0"
"9223","16:25:45.226","0.0","0.0"
"9224","16:25:45.233","0.0","0.0"
"9224","16:25:45.233","0.0","0.0"
"9225","16:25:45.237","0.0","0.0"
"9225","16:25:45.237","0.0","0.0"
"9226","16:25:45.240","0.0","0.0"
"9226","16:25:45.240","0.0","0.0"
"9227","16:25:45.242","0.0","0.0"
"9227","16:25:45.242","0.0","0.0"
"9228","16:25:45.243","0.0","0.0"
"9228","16:25:45.243","0.0","0.0"
"9229","16:25:45.263","0.0","0.0"
"9229","16:25:45.263","0.0","0.0"
"9230","16:25:45.266","0.0","0.0"
"9230","16:25:45.266","0.0","0.0"
"9231","16:25:45.269","0.0","0.0"
"9231","16:25:45.269","0.0","0.0"
"9232","16:25:45.272","0.0","0.0"
"9232","16:25:45.274","0.0","0.0"
"9234","16:25:45.313","0.0","0.0"
"9234","16:25:45.313","0.0","0.0"
"9235","16:25:45.315","0.0","0.0"
"9235","16:25:45.315","0.0","0.0"
"9236","16:25:45.325","0.0","0.0"
"9236","16:25:45.325","0.0","0.0"
"9237","16:25:45.330","0.0","0.0"
"9237","16:25:45.331","0.0","0.0"
"9238","16:25:45.347","0.0","0.0"
"9238","16:25:45.347","0.0","0.0"
"9239","16:25:45.351","0.0","0.0"
"9239","16:25:45.351","0.0","0.0"
"9240","16:25:45.354","0.0","0.0"
"9240","16:25:45.354","0.0","0.0"
"9241","16:25:45.358","0.0","0.0"
"9241","16:25:45.358","0.0","0.0"
"9242","16:25:45.360","0.0","0.0"
"9242","16:25:45.360","0.0","0.0"
"9243","16:25:45.364","0.0","0.0"
"9243","16:25:45.364","0.0","0.0"
"9244","16:25:45.377","0.0","0.0"
"9244","16:25:45.382","0.0","0.0"
"9245","16:25:45.384","0.0","0.0"
"9245","16:25:45.387","0.0","0.0"
"9246","16:25:45.391","0.0","0.0"
"9246","16:25:45.391","0.0","0.0"
"9247","16:25:45.406","0.0","0.0"
"9247","16:25:45.406","0.0","0.0"
"9248","16:25:45.408","0.0","0.0"
"9248","16:25:45.409","0.0","0.0"
"9249","16:25:45.410","0.0","0.0"
"9249","16:25:45.412","0.0","0.0"
"9250","16:25:45.417","0.0","0.0"
"9250","16:25:45.419","0.0","0.0"
"9252","16:25:45.480","0.0","0.0"
"9252","16:25:45.481","0.0","0.0"
"9253","16:25:45.491","0.0","0.0"
"9253","16:25:45.492","0.0","0.0"
"9254","16:25:45.497","0.0","0.0"
"9254","16:25:45.498","0.0","0.0"
"9255","16:25:45.500","0.0","0.0"
"9255","16:25:45.500","0.0","0.0"
"9256","16:25:45.507","0.0","0.0"
"9256","16:25:45.507","0.0","0.0"
"9257","16:25:45.510","0.0","0.0"
"9257","16:25:45.510","0.0","0.0"
"9258","16:25:45.514","0.0","0.0"
"9258","16:25:45.515","0.0","0.0"
"9259","16:25:45.527","0.0","0.0"
"9259","16:25:45.527","0.0","0.0"
"9260","16:25:45.532","0.0","0.0"
"9260","16:25:45.532","0.0","0.0"
"9261","16:25:45.534","0.0","0.0"
"9261","16:25:45.534","0.0","0.0"
"9262","16:25:45.551","0.0","0.0"
"9262","16:25:45.551","0.0","0.0"
"9263","16:25:45.552","0.0","0.0"
"9263","16:25:45.553","0.0","0.0"
"9264","16:25:45.560","0.0","0.0"
"9264","16:25:45.560","0.0","0.0"
"9265","16:25:45.569","0.0","0.0"
"9265","16:25:45.569","0.0","0.0"
"9266","16:25:45.600","0.0","0.0"
"9266","16:25:45.600","0.0","0.0"
"9267","16:25:45.602","0.0","0.0"
"9267","16:25:45.602","0.0","0.0"
"9268","16:25:45.604","0.0","0.0"
"9268","16:25:45.606","0.0","0.0"
"9270","16:25:45.651","0.0","0.0"
"9270","16:25:45.652","0.0","0.0"
"9271","16:25:45.654","0.0","0.0"
"9271","16:25:45.654","0.0","0.0"
"9272","16:25:45.658","0.0","0.0"
"9272","16:25:45.658","0.0","0.0"
"9273","16:25:45.661","0.0","0.0"
"9273","16:25:45.662","0.0","0.0"
"9274","16:25:45.678","0.0","0.0"
"9274","16:25:45.678","0.0","0.0"
"9275","16:25:45.680","0.0","0.0"
"9275","16:25:45.680","0.0","0.0"
"9276","16:25:45.683","0.0","0.0"
"9276","16:25:45.683","0.0","0.0"
"9277","16:25:45.716","0.0","0.0"
"9277","16:25:45.716","0.0","0.0"
"9278","16:25:45.718","0.0","0.0"
"9278","16:25:45.718","0.0","0.0"
"9279","16:25:45.727","0.0","0.0"
"9279","16:25:45.728","0.0","0.0"
"9280","16:25:45.730","0.0","0.0"
"9280","16:25:45.730","0.0","0.0"
"9281","16:25:45.748","0.0","0.0"
"9281","16:25:45.749","0.0","0.0"
"9282","16:25:45.751","0.0","0.0"
"9282","16:25:45.751","0.0","0.0"
"9283","16:25:45.754","0.0","0.0"
"9283","16:25:45.754","0.0","0.0"
"9284","16:25:45.756","0.0","0.0"
"9284","16:25:45.756","0.0","0.0"
"9285","16:25:45.757","0.0","0.0"
"9285","16:25:45.757","0.0","0.0"
"9286","16:25:45.759","0.0","0.0"
"9286","16:25:45.760","0.0","0.0"
"9288","16:25:45.819","0.0","0.0"
"9288","16:25:45.820","0.0","0.0"
"9289","16:25:45.821","0.0","0.0"
"9289","16:25:45.821","0.0","0.0"
"9290","16:25:45.823","0.0","0.0"
"9290","16:25:45.823","0.0","0.0"
"9291","16:25:45.826","0.0","0.0"
"9291","16:25:45.826","0.0","0.0"
"9292","16:25:45.862","0.0","0.0"
"9292","16:25:45.863","0.0","0.0"
"9293","16:25:45.865","0.0","0.0"
"9293","16:25:45.865","0.0","0.0"
"9294","16:25:45.867","0.0","0.0"
"9294","16:25:45.867","0.0","0.0"
"9295","16:25:45.887","0.0","0.0"
"9295","16:25:45.887","0.0","0.0"
"9296","16:25:45.901","0.0","0.0"
"9296","16:25:45.901","0.0","0.0"
"9297","16:25:45.916","0.0","0.0"
"9297","16:25:45.916","0.0","0.0"
"9298","16:25:45.919","0.0","0.0"
"9298","16:25:45.919","0.0","0.0"
"9299","16:25:45.924","0.0","0.0"
"9299","16:25:45.924","0.0","0.0"
"9300","16:25:45.936","0.0","0.0"
"9300","16:25:45.936","0.0","0.0"
"9301","16:25:45.938","0.0","0.0"
"9301","16:25:45.939","0.0","0.0"
"9302","16:25:45.941","0.0","0.0"
"9302","16:25:45.941","0.0","0.0"
"9303","16:25:45.942","0.0","0.0"
"9303","16:25:45.942","0.0","0.0"
"9304","16:25:45.946","0.0","0.0"
"9304","16:25:45.948","0.0","0.0"
"9306","16:25:45.991","0.0","0.0"
"9306","16:25:45.991","0.0","0.0"
"9307","16:25:45.993","0.0","0.0"
"9307","16:25:45.993","0.0","0.0"
"9308","16:25:45.996","0.0","0.0"
"9308","16:25:45.996","0.0","0.0"
"9309","16:25:46.007","0.0","0.0"
"9309","16:25:46.008","0.0","0.0"
"9310","16:25:46.010","0.0","0.0"
"9310","16:25:46.010","0.0","0.0"
"9311","16:25:46.011","0.0","0.0"
"9311","16:25:46.012","0.0","0.0"
"9312","16:25:46.013","0.0","0.0"
"9312","16:25:46.014","0.0","0.0"
"9313","16:25:46.031","0.0","0.0"
"9313","16:25:46.031","0.0","0.0"
"9314","16:25:46.033","0.0","0.0"
"9314","16:25:46.033","0.0","0.0"
"9315","16:25:46.037","0.0","0.0"
"9315","16:25:46.037","0.0","0.0"
"9316","16:25:46.054","0.0","0.0"
"9316","16:25:46.054","0.0","0.0"
"9317","16:25:46.065","0.0","0.0"
"9317","16:25:46.066","0.0","0.0"
"9318","16:25:46.067","0.0","0.0"
"9318","16:25:46.067","0.0","0.0"
"9319","16:25:46.082","0.0","0.0"
"9319","16:25:46.082","0.0","0.0"
"9320","16:25:46.084","0.0","0.0"
"9320","16:25:46.084","0.0","0.0"
"9321","16:25:46.087","0.0","0.0"
"9321","16:25:46.087","0.0","0.0"
"9322","16:25:46.090","0.0","0.0"
"9322","16:25:46.092","0.0","0.0"
"9324","16:25:46.159","0.0","0.0"
"9324","16:25:46.159","0.0","0.0"
"9325","16:25:46.174","0.0","0.0"
"9325","16:25:46.174","0.0","0.0"
"9326","16:25:46.175","0.0","0.0"
"9326","16:25:46.176","0.0","0.0"
"9327","16:25:46.178","0.0","0.0"
"9327","16:25:46.178","0.0","0.0"
"9328","16:25:46.201","0.0","0.0"
"9328","16:25:46.201","0.0","0.0"
"9329","16:25:46.203","0.0","0.0"
"9329","16:25:46.203","0.0","0.0"
"9330","16:25:46.209","0.0","0.0"
"9330","16:25:46.209","0.0","0.0"
"9331","16:25:46.211","0.0","0.0"
"9331","16:25:46.213","0.0","0.0"
"9332","16:25:46.216","0.0","0.0"
"9332","16:25:46.217","0.0","0.0"
"9333","16:25:46.238","0.0","0.0"
"9333","16:25:46.238","0.0","0.0"
"9334","16:25:46.240","0.0","0.0"
"9334","16:25:46.242","0.0","0.0"
"9335","16:25:46.248","0.0","0.0"
"9335","16:25:46.249","0.0","0.0"
"9336","16:25:46.250","0.0","0.0"
"9336","16:25:46.251","0.0","0.0"
"9337","16:25:46.259","0.0","0.0"
"9337","16:25:46.259","0.0","0.0"
"9338","16:25:46.260","0.0","0.0"
"9338","16:25:46.260","0.0","0.0"
"9339","16:25:46.262","0.0","0.0"
"9339","16:25:46.262","0.0","0.0"
"9340","16:25:46.263","0.0","0.0"
"9340","16:25:46.265","0.0","0.0"
"9342","16:25:46.344","0.0","0.0"
"9342","16:25:46.344","0.0","0.0"
"9343","16:25:46.347","0.0","0.0"
"9343","16:25:46.347","0.0","0.0"
"9344","16:25:46.364","0.0","0.0"
"9344","16:25:46.364","0.0","0.0"
"9345","16:25:46.366","0.0","0.0"
"9345","16:25:46.367","0.0","0.0"
"9346","16:25:46.369","0.0","0.0"
"9346","16:25:46.369","0.0","0.0"
"9347","16:25:46.370","0.0","0.0"
"9347","16:25:46.371","0.0","0.0"
"9348","16:25:46.372","0.0","0.0"
"9348","16:25:46.373","0.0","0.0"
"9349","16:25:46.399","0.0","0.0"
"9349","16:25:46.402","0.0","0.0"
"9350","16:25:46.405","0.0","0.0"
"9350","16:25:46.405","0.0","0.0"
"9351","16:25:46.407","0.0","0.0"
"9351","16:25:46.407","0.0","0.0"
"9352","16:25:46.435","0.0","0.0"
"9352","16:25:46.435","0.0","0.0"
"9353","16:25:46.449","0.0","0.0"
"9353","16:25:46.449","0.0","0.0"
"9354","16:25:46.451","0.0","0.0"
"9354","16:25:46.451","0.0","0.0"
"9355","16:25:46.454","0.0","0.0"
"9355","16:25:46.456","0.0","0.0"
"9356","16:25:46.458","0.0","0.0"
"9356","16:25:46.458","0.0","0.0"
"9357","16:25:46.459","0.0","0.0"
"9357","16:25:46.460","0.0","0.0"
"9358","16:25:46.480","0.0","0.0"
"9358","16:25:46.483","0.0","0.0"
"9360","16:25:46.518","0.0","0.0"
"9360","16:25:46.518","0.0","0.0"
"9361","16:25:46.519","0.0","0.0"
"9361","16:25:46.520","0.0","0.0"
"9362","16:25:46.521","0.0","0.0"
"9362","16:25:46.521","0.0","0.0"
"9363","16:25:46.523","0.0","0.0"
"9363","16:25:46.523","0.0","0.0"
"9364","16:25:46.534","0.0","0.0"
"9364","16:25:46.535","0.0","0.0"
"9365","16:25:46.547","0.0","0.0"
"9365","16:25:46.548","0.0","0.0"
"9366","16:25:46.562","0.0","0.0"
"9366","16:25:46.562","0.0","0.0"
"9367","16:25:46.565","0.0","0.0"
"9367","16:25:46.565","0.0","0.0"
"9368","16:25:46.583","0.0","0.0"
"9368","16:25:46.583","0.0","0.0"
"9369","16:25:46.585","0.0","0.0"
"9369","16:25:46.585","0.0","0.0"
"9370","16:25:46.587","0.0","0.0"
"9370","16:25:46.587","0.0","0.0"
"9371","16:25:46.610","0.0","0.0"
"9371","16:25:46.610","0.0","0.0"
"9372","16:25:46.613","0.0","0.0"
"9372","16:25:46.613","0.0","0.0"
"9373","16:25:46.614","0.0","0.0"
"9373","16:25:46.615","0.0","0.0"
"9374","16:25:46.616","0.0","0.0"
"9374","16:25:46.616","0.0","0.0"
"9375","16:25:46.618","0.0","0.0"
"9375","16:25:46.618","0.0","0.0"
"9376","16:25:46.631","0.0","0.0"
"9376","16:25:46.633","0.0","0.0"
"9378","16:25:46.678","0.0","0.0"
"9378","16:25:46.679","0.0","0.0"
"9379","16:25:46.691","0.0","0.0"
"9379","16:25:46.691","0.0","0.0"
"9380","16:25:46.715","0.0","0.0"
"9380","16:25:46.716","0.0","0.0"
"9381","16:25:46.717","0.0","0.0"
"9381","16:25:46.718","0.0","0.0"
"9382","16:25:46.719","0.0","0.0"
"9382","16:25:46.719","0.0","0.0"
"9383","16:25:46.721","0.0","0.0"
"9383","16:25:46.721","0.0","0.0"
"9384","16:25:46.743","0.0","0.0"
"9384","16:25:46.743","0.0","0.0"
"9385","16:25:46.745","0.0","0.0"
"9385","16:25:46.745","0.0","0.0"
"9386","16:25:46.747","0.0","0.0"
"9386","16:25:46.747","0.0","0.0"
"9387","16:25:46.749","0.0","0.0"
"9387","16:25:46.749","0.0","0.0"
"9388","16:25:46.751","0.0","0.0"
"9388","16:25:46.751","0.0","0.0"
"9389","16:25:46.765","0.0","0.0"
"9389","16:25:46.765","0.0","0.0"
"9390","16:25:46.767","0.0","0.0"
"9390","16:25:46.767","0.0","0.0"
"9391","16:25:46.769","0.0","0.0"
"9391","16:25:46.769","0.0","0.0"
"9392","16:25:46.796","0.0","0.0"
"9392","16:25:46.796","0.0","0.0"
"9393","16:25:46.798","0.0","0.0"
"9393","16:25:46.799","0.0","0.0"
"9394","16:25:46.800","0.0","0.0"
"9394","16:25:46.802","0.0","0.0"
"9396","16:25:46.855","0.0","0.0"
"9396","16:25:46.855","0.0","0.0"
"9397","16:25:46.857","0.0","0.0"
"9397","16:25:46.857","0.0","0.0"
"9398","16:25:46.859","0.0","0.0"
"9398","16:25:46.859","0.0","0.0"
"9399","16:25:46.861","0.0","0.0"
"9399","16:25:46.861","0.0","0.0"
"9400","16:25:46.884","0.0","0.0"
"9400","16:25:46.885","0.0","0.0"
"9401","16:25:46.887","0.0","0.0"
"9401","16:25:46.887","0.0","0.0"
"9402","16:25:46.889","0.0","0.0"
"9402","16:25:46.889","0.0","0.0"
"9403","16:25:46.899","0.0","0.0"
"9403","16:25:46.900","0.0","0.0"
"9404","16:25:46.902","0.0","0.0"
"9404","16:25:46.903","0.0","0.0"
"9405","16:25:46.904","0.0","0.0"
"9405","16:25:46.904","0.0","0.0"
"9406","16:25:46.926","0.0","0.0"
"9406","16:25:46.926","0.0","0.0"
"9407","16:25:46.928","0.0","0.0"
"9407","16:25:46.928","0.0","0.0"
"9408","16:25:46.930","0.0","0.0"
"9408","16:25:46.930","0.0","0.0"
"9409","16:25:46.931","0.0","0.0"
"9409","16:25:46.931","0.0","0.0"
"9410","16:25:46.933","0.0","0.0"
"9410","16:25:46.933","0.0","0.0"
"9411","16:25:46.935","0.0","0.0"
"9411","16:25:46.935","0.0","0.0"
"9412","16:25:46.957","0.0","0.0"
"9412","16:25:46.959","0.0","0.0"
"9414","16:25:47.024","0.0","0.0"
"9414","16:25:47.024","0.0","0.0"
"9415","16:25:47.026","0.0","0.0"
"9415","16:25:47.026","0.0","0.0"
"9416","16:25:47.028","0.0","0.0"
"9416","16:25:47.029","0.0","0.0"
"9417","16:25:47.054","0.0","0.0"
"9417","16:25:47.054","0.0","0.0"
"9418","16:25:47.058","0.0","0.0"
"9418","16:25:47.058","0.0","0.0"
"9419","16:25:47.060","0.0","0.0"
"9419","16:25:47.060","0.0","0.0"
"9420","16:25:47.062","0.0","0.0"
"9420","16:25:47.062","0.0","0.0"
"9421","16:25:47.064","0.0","0.0"
"9421","16:25:47.064","0.0","0.0"
"9422","16:25:47.076","0.0","0.0"
"9422","16:25:47.076","0.0","0.0"
"9423","16:25:47.078","0.0","0.0"
"9423","16:25:47.078","0.0","0.0"
"9424","16:25:47.080","0.0","0.0"
"9424","16:25:47.080","0.0","0.0"
"9425","16:25:47.082","0.0","0.0"
"9425","16:25:47.082","0.0","0.0"
"9426","16:25:47.084","0.0","0.0"
"9426","16:25:47.084","0.0","0.0"
"9427","16:25:47.102","0.0","0.0"
"9427","16:25:47.103","0.0","0.0"
"9428","16:25:47.104","0.0","0.0"
"9428","16:25:47.104","0.0","0.0"
"9429","16:25:47.106","0.0","0.0"
"9429","16:25:47.107","0.0","0.0"
"9430","16:25:47.132","0.0","0.0"
"9430","16:25:47.134","0.0","0.0"
"9432","16:25:47.185","0.0","0.0"
"9432","16:25:47.186","0.0","0.0"
"9433","16:25:47.191","0.0","0.0"
"9433","16:25:47.191","0.0","0.0"
"9434","16:25:47.193","0.0","0.0"
"9434","16:25:47.194","0.0","0.0"
"9435","16:25:47.195","0.0","0.0"
"9435","16:25:47.195","0.0","0.0"
"9436","16:25:47.216","0.0","0.0"
"9436","16:25:47.216","0.0","0.0"
"9437","16:25:47.219","0.0","0.0"
"9437","16:25:47.219","0.0","0.0"
"9438","16:25:47.220","0.0","0.0"
"9438","16:25:47.221","0.0","0.0"
"9439","16:25:47.260","0.0","0.0"
"9439","16:25:47.260","0.0","0.0"
"9440","16:25:47.262","0.0","0.0"
"9440","16:25:47.262","0.0","0.0"
"9441","16:25:47.265","0.0","0.0"
"9441","16:25:47.266","0.0","0.0"
"9442","16:25:47.270","0.0","0.0"
"9442","16:25:47.270","0.0","0.0"
"9443","16:25:47.273","0.0","0.0"
"9443","16:25:47.273","0.0","0.0"
"9444","16:25:47.298","0.0","0.0"
"9444","16:25:47.299","0.0","0.0"
"9445","16:25:47.300","0.0","0.0"
"9445","16:25:47.300","0.0","0.0"
"9446","16:25:47.302","0.0","0.0"
"9446","16:25:47.302","0.0","0.0"
"9447","16:25:47.304","0.0","0.0"
"9447","16:25:47.304","0.0","0.0"
"9448","16:25:47.307","0.0","0.0"
"9448","16:25:47.309","0.0","0.0"
"9450","16:25:47.355","0.0","0.0"
"9450","16:25:47.355","0.0","0.0"
"9451","16:25:47.383","0.0","0.0"
"9451","16:25:47.383","0.0","0.0"
"9452","16:25:47.385","0.0","0.0"
"9452","16:25:47.385","0.0","0.0"
"9453","16:25:47.387","0.0","0.0"
"9453","16:25:47.387","0.0","0.0"
"9454","16:25:47.389","0.0","0.0"
"9454","16:25:47.390","0.0","0.0"
"9455","16:25:47.392","0.0","0.0"
"9455","16:25:47.393","0.0","0.0"
"9456","16:25:47.394","0.0","0.0"
"9456","16:25:47.395","0.0","0.0"
"9457","16:25:47.398","0.0","0.0"
"9457","16:25:47.398","0.0","0.0"
"9458","16:25:47.400","0.0","0.0"
"9458","16:25:47.400","0.0","0.0"
"9459","16:25:47.402","0.0","0.0"
"9459","16:25:47.402","0.0","0.0"
"9460","16:25:47.418","0.0","0.0"
"9460","16:25:47.418","0.0","0.0"
"9461","16:25:47.420","0.0","0.0"
"9461","16:25:47.420","0.0","0.0"
"9462","16:25:47.422","0.0","0.0"
"9462","16:25:47.422","0.0","0.0"
"9463","16:25:47.450","0.0","0.0"
"9463","16:25:47.450","0.0","0.0"
"9464","16:25:47.452","0.0","0.0"
"9464","16:25:47.452","0.0","0.0"
"9465","16:25:47.454","0.0","0.0"
"9465","16:25:47.454","0.0","0.0"
"9466","16:25:47.455","0.0","0.0"
"9466","16:25:47.476","0.0","0.0"
"9468","16:25:47.545","0.0","0.0"
"9468","16:25:47.545","0.0","0.0"
"9469","16:25:47.560","0.0","0.0"
"9469","16:25:47.560","0.0","0.0"
"9470","16:25:47.562","0.0","0.0"
"9470","16:25:47.562","0.0","0.0"
"9471","16:25:47.564","0.0","0.0"
"9471","16:25:47.565","0.0","0.0"
"9472","16:25:47.566","0.0","0.0"
"9472","16:25:47.567","0.0","0.0"
"9473","16:25:47.579","0.0","0.0"
"9473","16:25:47.580","0.0","0.0"
"9474","16:25:47.583","0.0","0.0"
"9474","16:25:47.583","0.0","0.0"
"9475","16:25:47.584","0.0","0.0"
"9475","16:25:47.585","0.0","0.0"
"9476","16:25:47.602","0.0","0.0"
"9476","16:25:47.602","0.0","0.0"
"9477","16:25:47.604","0.0","0.0"
"9477","16:25:47.604","0.0","0.0"
"9478","16:25:47.605","0.0","0.0"
"9478","16:25:47.605","0.0","0.0"
"9479","16:25:47.607","0.0","0.0"
"9479","16:25:47.608","0.0","0.0"
"9480","16:25:47.609","0.0","0.0"
"9480","16:25:47.610","0.0","0.0"
"9481","16:25:47.638","0.0","0.0"
"9481","16:25:47.638","0.0","0.0"
"9482","16:25:47.675","0.0","0.0"
"9482","16:25:47.675","0.0","0.0"
"9483","16:25:47.677","0.0","0.0"
"9483","16:25:47.678","0.0","0.0"
"9484","16:25:47.679","0.0","0.0"
"9484","16:25:47.682","0.0","0.0"
"9486","16:25:47.713","0.0","0.0"
"9486","16:25:47.713","0.0","0.0"
"9487","16:25:47.738","0.0","0.0"
"9487","16:25:47.738","0.0","0.0"
"9488","16:25:47.741","0.0","0.0"
"9488","16:25:47.741","0.0","0.0"
"9489","16:25:47.743","0.0","0.0"
"9489","16:25:47.743","0.0","0.0"
"9490","16:25:47.745","0.0","0.0"
"9490","16:25:47.745","0.0","0.0"
"9491","16:25:47.747","0.0","0.0"
"9491","16:25:47.747","0.0","0.0"
"9492","16:25:47.749","0.0","0.0"
"9492","16:25:47.750","0.0","0.0"
"9493","16:25:47.787","0.0","0.0"
"9493","16:25:47.788","0.0","0.0"
"9494","16:25:47.790","0.0","0.0"
"9494","16:25:47.790","0.0","0.0"
"9495","16:25:47.792","0.0","0.0"
"9495","16:25:47.792","0.0","0.0"
"9496","16:25:47.794","0.0","0.0"
"9496","16:25:47.794","0.0","0.0"
"9497","16:25:47.796","0.0","0.0"
"9497","16:25:47.796","0.0","0.0"
"9498","16:25:47.798","0.0","0.0"
"9498","16:25:47.799","0.0","0.0"
"9499","16:25:47.826","0.0","0.0"
"9499","16:25:47.826","0.0","0.0"
"9500","16:25:47.828","0.0","0.0"
"9500","16:25:47.829","0.0","0.0"
"9501","16:25:47.830","0.0","0.0"
"9501","16:25:47.830","0.0","0.0"
"9502","16:25:47.834","0.0","0.0"
"9502","16:25:47.836","0.0","0.0"
"9504","16:25:47.902","0.0","0.0"
"9504","16:25:47.902","0.0","0.0"
"9505","16:25:47.904","0.0","0.0"
"9505","16:25:47.905","0.0","0.0"
"9506","16:25:47.906","0.0","0.0"
"9506","16:25:47.907","0.0","0.0"
"9507","16:25:47.910","0.0","0.0"
"9507","16:25:47.910","0.0","0.0"
"9508","16:25:47.914","0.0","0.0"
"9508","16:25:47.915","0.0","0.0"
"9509","16:25:47.916","0.0","0.0"
"9509","16:25:47.917","0.0","0.0"
"9510","16:25:47.918","0.0","0.0"
"9510","16:25:47.919","0.0","0.0"
"9511","16:25:47.933","0.0","0.0"
"9511","16:25:47.933","0.0","0.0"
"9512","16:25:47.956","0.0","0.0"
"9512","16:25:47.956","0.0","0.0"
"9513","16:25:47.958","0.0","0.0"
"9513","16:25:47.958","0.0","0.0"
"9514","16:25:47.960","0.0","0.0"
"9514","16:25:47.960","0.0","0.0"
"9515","16:25:47.962","0.0","0.0"
"9515","16:25:47.962","0.0","0.0"
"9516","16:25:47.964","0.0","0.0"
"9516","16:25:47.967","0.0","0.0"
"9517","16:25:47.997","0.0","0.0"
"9517","16:25:47.998","0.0","0.0"
"9518","16:25:48.000","0.0","0.0"
"9518","16:25:48.001","0.0","0.0"
"9519","16:25:48.003","0.0","0.0"
"9519","16:25:48.003","0.0","0.0"
"9520","16:25:48.004","0.0","0.0"
"9520","16:25:48.006","0.0","0.0"
"9522","16:25:48.036","0.0","0.0"
"9522","16:25:48.036","0.0","0.0"
"9523","16:25:48.039","0.0","0.0"
"9523","16:25:48.039","0.0","0.0"
"9524","16:25:48.041","0.0","0.0"
"9524","16:25:48.041","0.0","0.0"
"9525","16:25:48.073","0.0","0.0"
"9525","16:25:48.073","0.0","0.0"
"9526","16:25:48.075","0.0","0.0"
"9526","16:25:48.075","0.0","0.0"
"9527","16:25:48.076","0.0","0.0"
"9527","16:25:48.077","0.0","0.0"
"9528","16:25:48.078","0.0","0.0"
"9528","16:25:48.078","0.0","0.0"
"9529","16:25:48.081","0.0","0.0"
"9529","16:25:48.082","0.0","0.0"
"9530","16:25:48.085","0.0","0.0"
"9530","16:25:48.086","0.0","0.0"
"9531","16:25:48.087","0.0","0.0"
"9531","16:25:48.087","0.0","0.0"
"9532","16:25:48.107","0.0","0.0"
"9532","16:25:48.109","0.0","0.0"
"9533","16:25:48.111","0.0","0.0"
"9533","16:25:48.111","0.0","0.0"
"9534","16:25:48.112","0.0","0.0"
"9534","16:25:48.112","0.0","0.0"
"9535","16:25:48.115","0.0","0.0"
"9535","16:25:48.116","0.0","0.0"
"9536","16:25:48.117","0.0","0.0"
"9536","16:25:48.117","0.0","0.0"
"9537","16:25:48.131","0.0","0.0"
"9537","16:25:48.131","0.0","0.0"
"9538","16:25:48.133","0.0","0.0"
"9538","16:25:48.134","0.0","0.0"
"9540","16:25:48.198","0.0","0.0"
"9540","16:25:48.198","0.0","0.0"
"9541","16:25:48.209","0.0","0.0"
"9541","16:25:48.210","0.0","0.0"
"9542","16:25:48.211","0.0","0.0"
"9542","16:25:48.212","0.0","0.0"
"9543","16:25:48.213","0.0","0.0"
"9543","16:25:48.214","0.0","0.0"
"9544","16:25:48.239","0.0","0.0"
"9544","16:25:48.239","0.0","0.0"
"9545","16:25:48.241","0.0","0.0"
"9545","16:25:48.242","0.0","0.0"
"9546","16:25:48.244","0.0","0.0"
"9546","16:25:48.244","0.0","0.0"
"9547","16:25:48.246","0.0","0.0"
"9547","16:25:48.246","0.0","0.0"
"9548","16:25:48.248","0.0","0.0"
"9548","16:25:48.248","0.0","0.0"
"9549","16:25:48.277","0.0","0.0"
"9549","16:25:48.277","0.0","0.0"
"9550","16:25:48.280","0.0","0.0"
"9550","16:25:48.281","0.0","0.0"
"9551","16:25:48.284","0.0","0.0"
"9551","16:25:48.284","0.0","0.0"
"9552","16:25:48.286","0.0","0.0"
"9552","16:25:48.286","0.0","0.0"
"9553","16:25:48.290","0.0","0.0"
"9553","16:25:48.290","0.0","0.0"
"9554","16:25:48.292","0.0","0.0"
"9554","16:25:48.292","0.0","0.0"
"9555","16:25:48.318","0.0","0.0"
"9555","16:25:48.319","0.0","0.0"
"9556","16:25:48.320","0.0","0.0"
"9556","16:25:48.322","0.0","0.0"
"9558","16:25:48.409","0.0","0.0"
"9558","16:25:48.409","0.0","0.0"
"9559","16:25:48.411","0.0","0.0"
"9559","16:25:48.411","0.0","0.0"
"9560","16:25:48.412","0.0","0.0"
"9560","16:25:48.413","0.0","0.0"
"9561","16:25:48.414","0.0","0.0"
"9561","16:25:48.414","0.0","0.0"
"9562","16:25:48.416","0.0","0.0"
"9562","16:25:48.417","0.0","0.0"
"9563","16:25:48.419","0.0","0.0"
"9563","16:25:48.419","0.0","0.0"
"9564","16:25:48.424","0.0","0.0"
"9564","16:25:48.425","0.0","0.0"
"9565","16:25:48.448","0.0","0.0"
"9565","16:25:48.449","0.0","0.0"
"9566","16:25:48.451","0.0","0.0"
"9566","16:25:48.451","0.0","0.0"
"9567","16:25:48.452","0.0","0.0"
"9567","16:25:48.453","0.0","0.0"
"9568","16:25:48.454","0.0","0.0"
"9568","16:25:48.454","0.0","0.0"
"9569","16:25:48.456","0.0","0.0"
"9569","16:25:48.456","0.0","0.0"
"9570","16:25:48.457","0.0","0.0"
"9570","16:25:48.458","0.0","0.0"
"9571","16:25:48.510","0.0","0.0"
"9571","16:25:48.511","0.0","0.0"
"9572","16:25:48.512","0.0","0.0"
"9572","16:25:48.513","0.0","0.0"
"9573","16:25:48.514","0.0","0.0"
"9573","16:25:48.515","0.0","0.0"
"9574","16:25:48.516","0.0","0.0"
"9574","16:25:48.518","0.0","0.0"
"9576","16:25:48.561","0.0","0.0"
"9576","16:25:48.561","0.0","0.0"
"9580","16:25:48.599","4200434.0","0.0"
"9580","16:25:48.600","4200435.0","0.0"
"9581","16:25:48.602","0.0","0.0"
"9581","16:25:48.603","0.0","0.0"
"9582","16:25:48.604","0.0","0.0"
"9582","16:25:48.605","0.0","0.0"
"9583","16:25:48.607","0.0","0.0"
"9583","16:25:48.607","0.0","0.0"
"9584","16:25:48.609","0.0","0.0"
"9584","16:25:48.610","0.0","0.0"
"9585","16:25:48.614","0.0","0.0"
"9585","16:25:48.615","0.0","0.0"
"9586","16:25:48.616","0.0","0.0"
"9586","16:25:48.617","0.0","0.0"
"9587","16:25:48.634","0.0","0.0"
"9587","16:25:48.635","0.0","0.0"
"9588","16:25:48.646","0.0","0.0"
"9588","16:25:48.646","0.0","0.0"
"9589","16:25:48.648","0.0","0.0"
"9589","16:25:48.648","0.0","0.0"
"9590","16:25:48.650","0.0","0.0"
"9590","16:25:48.650","0.0","0.0"
"9591","16:25:48.661","0.0","0.0"
"9591","16:25:48.661","0.0","0.0"
"9592","16:25:48.663","0.0","0.0"
"9592","16:25:48.664","0.0","0.0"
"9594","16:25:48.723","0.0","0.0"
"9594","16:25:48.723","0.0","0.0"
"9595","16:25:48.728","0.0","0.0"
"9595","16:25:48.728","0.0","0.0"
"9596","16:25:48.730","0.0","0.0"
"9596","16:25:48.731","0.0","0.0"
"9597","16:25:48.733","0.0","0.0"
"9597","16:25:48.733","0.0","0.0"
"9598","16:25:48.766","0.0","0.0"
"9598","16:25:48.766","0.0","0.0"
"9599","16:25:48.769","0.0","0.0"
"9599","16:25:48.769","0.0","0.0"
"9600","16:25:48.778","0.0","0.0"
"9600","16:25:48.779","0.0","0.0"
"9601","16:25:48.782","0.0","0.0"
"9601","16:25:48.782","0.0","0.0"
"9602","16:25:48.799","0.0","0.0"
"9602","16:25:48.799","0.0","0.0"
"9603","16:25:48.802","0.0","0.0"
"9603","16:25:48.803","0.0","0.0"
"9604","16:25:48.805","0.0","0.0"
"9604","16:25:48.805","0.0","0.0"
"9605","16:25:48.807","0.0","0.0"
"9605","16:25:48.807","0.0","0.0"
"9606","16:25:48.813","0.0","0.0"
"9606","16:25:48.813","0.0","0.0"
"9607","16:25:48.815","0.0","0.0"
"9607","16:25:48.815","0.0","0.0"
"9608","16:25:48.831","0.0","0.0"
"9608","16:25:48.831","0.0","0.0"
"9609","16:25:48.833","0.0","0.0"
"9609","16:25:48.834","0.0","0.0"
"9610","16:25:48.835","0.0","0.0"
"9610","16:25:48.845","0.0","0.0"
"9612","16:25:48.891","0.0","0.0"
"9612","16:25:48.892","0.0","0.0"
"9613","16:25:48.912","0.0","0.0"
"9613","16:25:48.912","0.0","0.0"
"9614","16:25:48.914","0.0","0.0"
"9614","16:25:48.914","0.0","0.0"
"9615","16:25:48.918","0.0","0.0"
"9615","16:25:48.918","0.0","0.0"
"9616","16:25:48.920","0.0","0.0"
"9616","16:25:48.920","0.0","0.0"
"9617","16:25:48.922","0.0","0.0"
"9617","16:25:48.922","0.0","0.0"
"9618","16:25:48.932","0.0","0.0"
"9618","16:25:48.933","0.0","0.0"
"9619","16:25:48.935","0.0","0.0"
"9619","16:25:48.935","0.0","0.0"
"9620","16:25:48.937","0.0","0.0"
"9620","16:25:48.937","0.0","0.0"
"9621","16:25:48.949","0.0","0.0"
"9621","16:25:48.949","0.0","0.0"
"9622","16:25:48.952","0.0","0.0"
"9622","16:25:48.953","0.0","0.0"
"9623","16:25:48.965","0.0","0.0"
"9623","16:25:48.965","0.0","0.0"
"9624","16:25:48.968","0.0","0.0"
"9624","16:25:48.968","0.0","0.0"
"9625","16:25:48.985","0.0","0.0"
"9625","16:25:48.985","0.0","0.0"
"9626","16:25:48.989","0.0","0.0"
"9626","16:25:48.989","0.0","0.0"
"9627","16:25:48.991","0.0","0.0"
"9627","16:25:48.991","0.0","0.0"
"9628","16:25:48.998","0.0","0.0"
"9628","16:25:49.000","0.0","0.0"
"9630","16:25:49.042","0.0","0.0"
"9630","16:25:49.043","0.0","0.0"
"9631","16:25:49.044","0.0","0.0"
"9631","16:25:49.044","0.0","0.0"
"9632","16:25:49.063","0.0","0.0"
"9632","16:25:49.063","0.0","0.0"
"9633","16:25:49.083","0.0","0.0"
"9633","16:25:49.083","0.0","0.0"
"9634","16:25:49.086","0.0","0.0"
"9634","16:25:49.086","0.0","0.0"
"9635","16:25:49.088","0.0","0.0"
"9635","16:25:49.088","0.0","0.0"
"9636","16:25:49.095","0.0","0.0"
"9636","16:25:49.096","0.0","0.0"
"9637","16:25:49.099","0.0","0.0"
"9637","16:25:49.099","0.0","0.0"
"9638","16:25:49.118","0.0","0.0"
"9638","16:25:49.118","0.0","0.0"
"9639","16:25:49.120","0.0","0.0"
"9639","16:25:49.120","0.0","0.0"
"9640","16:25:49.122","0.0","0.0"
"9640","16:25:49.122","0.0","0.0"
"9641","16:25:49.132","0.0","0.0"
"9641","16:25:49.132","0.0","0.0"
"9642","16:25:49.135","0.0","0.0"
"9642","16:25:49.135","0.0","0.0"
"9643","16:25:49.139","0.0","0.0"
"9643","16:25:49.139","0.0","0.0"
"9644","16:25:49.149","0.0","0.0"
"9644","16:25:49.149","0.0","0.0"
"9645","16:25:49.151","0.0","0.0"
"9645","16:25:49.151","0.0","0.0"
"9646","16:25:49.154","0.0","0.0"
"9646","16:25:49.164","0.0","0.0"
"9648","16:25:49.230","0.0","0.0"
"9648","16:25:49.230","0.0","0.0"
"9649","16:25:49.246","0.0","0.0"
"9649","16:25:49.247","0.0","0.0"
"9650","16:25:49.249","0.0","0.0"
"9650","16:25:49.249","0.0","0.0"
"9651","16:25:49.251","0.0","0.0"
"9651","16:25:49.251","0.0","0.0"
"9652","16:25:49.263","0.0","0.0"
"9652","16:25:49.264","0.0","0.0"
"9653","16:25:49.267","0.0","0.0"
"9653","16:25:49.267","0.0","0.0"
"9654","16:25:49.269","0.0","0.0"
"9654","16:25:49.269","0.0","0.0"
"9655","16:25:49.284","0.0","0.0"
"9655","16:25:49.284","0.0","0.0"
"9656","16:25:49.286","0.0","0.0"
"9656","16:25:49.286","0.0","0.0"
"9657","16:25:49.288","0.0","0.0"
"9657","16:25:49.289","0.0","0.0"
"9658","16:25:49.300","0.0","0.0"
"9658","16:25:49.300","0.0","0.0"
"9659","16:25:49.305","0.0","0.0"
"9659","16:25:49.306","0.0","0.0"
"9660","16:25:49.308","0.0","0.0"
"9660","16:25:49.308","0.0","0.0"
"9661","16:25:49.316","0.0","0.0"
"9661","16:25:49.317","0.0","0.0"
"9662","16:25:49.319","0.0","0.0"
"9662","16:25:49.319","0.0","0.0"
"9663","16:25:49.321","0.0","0.0"
"9663","16:25:49.321","0.0","0.0"
"9664","16:25:49.332","0.0","0.0"
"9664","16:25:49.334","0.0","0.0"
"9666","16:25:49.400","0.0","0.0"
"9666","16:25:49.400","0.0","0.0"
"9667","16:25:49.402","0.0","0.0"
"9667","16:25:49.403","0.0","0.0"
"9668","16:25:49.412","0.0","0.0"
"9668","16:25:49.412","0.0","0.0"
"9669","16:25:49.415","0.0","0.0"
"9669","16:25:49.415","0.0","0.0"
"9670","16:25:49.432","0.0","0.0"
"9670","16:25:49.432","0.0","0.0"
"9671","16:25:49.435","0.0","0.0"
"9671","16:25:49.435","0.0","0.0"
"9672","16:25:49.437","0.0","0.0"
"9672","16:25:49.437","0.0","0.0"
"9673","16:25:49.454","0.0","0.0"
"9673","16:25:49.454","0.0","0.0"
"9674","16:25:49.469","0.0","0.0"
"9674","16:25:49.469","0.0","0.0"
"9675","16:25:49.471","0.0","0.0"
"9675","16:25:49.471","0.0","0.0"
"9676","16:25:49.474","0.0","0.0"
"9676","16:25:49.475","0.0","0.0"
"9677","16:25:49.477","0.0","0.0"
"9677","16:25:49.478","0.0","0.0"
"9678","16:25:49.486","0.0","0.0"
"9678","16:25:49.486","0.0","0.0"
"9679","16:25:49.489","0.0","0.0"
"9679","16:25:49.489","0.0","0.0"
"9680","16:25:49.492","0.0","0.0"
"9680","16:25:49.493","0.0","0.0"
"9681","16:25:49.500","0.0","0.0"
"9681","16:25:49.501","0.0","0.0"
"9682","16:25:49.502","0.0","0.0"
"9682","16:25:49.504","0.0","0.0"
"9684","16:25:49.566","0.0","0.0"
"9684","16:25:49.566","0.0","0.0"
"9685","16:25:49.578","0.0","0.0"
"9685","16:25:49.578","0.0","0.0"
"9686","16:25:49.582","0.0","0.0"
"9686","16:25:49.583","0.0","0.0"
"9687","16:25:49.586","0.0","0.0"
"9687","16:25:49.586","0.0","0.0"
"9688","16:25:49.595","0.0","0.0"
"9688","16:25:49.595","0.0","0.0"
"9689","16:25:49.597","0.0","0.0"
"9689","16:25:49.597","0.0","0.0"
"9690","16:25:49.599","0.0","0.0"
"9690","16:25:49.599","0.0","0.0"
"9691","16:25:49.616","0.0","0.0"
"9691","16:25:49.616","0.0","0.0"
"9692","16:25:49.619","0.0","0.0"
"9692","16:25:49.619","0.0","0.0"
"9693","16:25:49.621","0.0","0.0"
"9693","16:25:49.621","0.0","0.0"
"9694","16:25:49.641","0.0","0.0"
"9694","16:25:49.641","0.0","0.0"
"9695","16:25:49.643","0.0","0.0"
"9695","16:25:49.644","0.0","0.0"
"9696","16:25:49.645","0.0","0.0"
"9696","16:25:49.646","0.0","0.0"
"9697","16:25:49.656","0.0","0.0"
"9697","16:25:49.657","0.0","0.0"
"9698","16:25:49.659","0.0","0.0"
"9698","16:25:49.659","0.0","0.0"
"9699","16:25:49.661","0.0","0.0"
"9699","16:25:49.661","0.0","0.0"
"9700","16:25:49.670","0.0","0.0"
"9700","16:25:49.672","0.0","0.0"
"9702","16:25:49.736","0.0","0.0"
"9702","16:25:49.736","0.0","0.0"
"9703","16:25:49.745","0.0","0.0"
"9703","16:25:49.746","0.0","0.0"
"9704","16:25:49.748","0.0","0.0"
"9704","16:25:49.748","0.0","0.0"
"9705","16:25:49.753","0.0","0.0"
"9705","16:25:49.754","0.0","0.0"
"9706","16:25:49.763","0.0","0.0"
"9706","16:25:49.763","0.0","0.0"
"9707","16:25:49.765","0.0","0.0"
"9707","16:25:49.765","0.0","0.0"
"9708","16:25:49.770","0.0","0.0"
"9708","16:25:49.770","0.0","0.0"
"9709","16:25:49.784","0.0","0.0"
"9709","16:25:49.784","0.0","0.0"
"9710","16:25:49.786","0.0","0.0"
"9710","16:25:49.787","0.0","0.0"
"9711","16:25:49.789","0.0","0.0"
"9711","16:25:49.790","0.0","0.0"
"9712","16:25:49.812","0.0","0.0"
"9712","16:25:49.812","0.0","0.0"
"9713","16:25:49.814","0.0","0.0"
"9713","16:25:49.815","0.0","0.0"
"9714","16:25:49.816","0.0","0.0"
"9714","16:25:49.816","0.0","0.0"
"9715","16:25:49.818","0.0","0.0"
"9715","16:25:49.819","0.0","0.0"
"9716","16:25:49.836","0.0","0.0"
"9716","16:25:49.836","0.0","0.0"
"9717","16:25:49.838","0.0","0.0"
"9717","16:25:49.838","0.0","0.0"
"9718","16:25:49.840","0.0","0.0"
"9718","16:25:49.841","0.0","0.0"
"9720","16:25:49.905","0.0","0.0"
"9720","16:25:49.905","0.0","0.0"
"9721","16:25:49.912","0.0","0.0"
"9721","16:25:49.913","0.0","0.0"
"9722","16:25:49.915","0.0","0.0"
"9722","16:25:49.915","0.0","0.0"
"9723","16:25:49.917","0.0","0.0"
"9723","16:25:49.917","0.0","0.0"
"9724","16:25:49.935","0.0","0.0"
"9724","16:25:49.935","0.0","0.0"
"9725","16:25:49.937","0.0","0.0"
"9725","16:25:49.937","0.0","0.0"
"9726","16:25:49.939","0.0","0.0"
"9726","16:25:49.940","0.0","0.0"
"9727","16:25:49.959","0.0","0.0"
"9727","16:25:49.959","0.0","0.0"
"9728","16:25:49.969","0.0","0.0"
"9728","16:25:49.969","0.0","0.0"
"9729","16:25:49.974","0.0","0.0"
"9729","16:25:49.974","0.0","0.0"
"9730","16:25:49.987","0.0","0.0"
"9730","16:25:49.987","0.0","0.0"
"9731","16:25:49.989","0.0","0.0"
"9731","16:25:49.989","0.0","0.0"
"9732","16:25:49.991","0.0","0.0"
"9732","16:25:49.991","0.0","0.0"
"9733","16:25:49.999","0.0","0.0"
"9733","16:25:49.999","0.0","0.0"
"9734","16:25:50.012","0.0","0.0"
"9734","16:25:50.013","0.0","0.0"
"9735","16:25:50.014","0.0","0.0"
"9735","16:25:50.015","0.0","0.0"
"9736","16:25:50.016","0.0","0.0"
"9736","16:25:50.018","0.0","0.0"
"9738","16:25:50.092","0.0","0.0"
"9738","16:25:50.093","0.0","0.0"
"9739","16:25:50.094","0.0","0.0"
"9739","16:25:50.095","0.0","0.0"
"9740","16:25:50.098","0.0","0.0"
"9740","16:25:50.098","0.0","0.0"
"9741","16:25:50.100","0.0","0.0"
"9741","16:25:50.100","0.0","0.0"
"9742","16:25:50.119","0.0","0.0"
"9742","16:25:50.120","0.0","0.0"
"9743","16:25:50.121","0.0","0.0"
"9743","16:25:50.122","0.0","0.0"
"9744","16:25:50.123","0.0","0.0"
"9744","16:25:50.123","0.0","0.0"
"9745","16:25:50.171","0.0","0.0"
"9745","16:25:50.171","0.0","0.0"
"9746","16:25:50.173","0.0","0.0"
"9746","16:25:50.174","0.0","0.0"
"9747","16:25:50.180","0.0","0.0"
"9747","16:25:50.180","0.0","0.0"
"9748","16:25:50.182","0.0","0.0"
"9748","16:25:50.182","0.0","0.0"
"9749","16:25:50.207","0.0","0.0"
"9749","16:25:50.208","0.0","0.0"
"9750","16:25:50.209","0.0","0.0"
"9750","16:25:50.210","0.0","0.0"
"9751","16:25:50.213","0.0","0.0"
"9751","16:25:50.213","0.0","0.0"
"9752","16:25:50.222","0.0","0.0"
"9752","16:25:50.222","0.0","0.0"
"9753","16:25:50.224","0.0","0.0"
"9753","16:25:50.224","0.0","0.0"
"9754","16:25:50.226","0.0","0.0"
"9754","16:25:50.248","0.0","0.0"
"9756","16:25:50.249","0.0","0.0"
"9756","16:25:50.250","0.0","0.0"
"9757","16:25:50.267","0.0","0.0"
"9757","16:25:50.267","0.0","0.0"
"9758","16:25:50.269","0.0","0.0"
"9758","16:25:50.270","0.0","0.0"
"9759","16:25:50.323","0.0","0.0"
"9759","16:25:50.323","0.0","0.0"
"9760","16:25:50.325","0.0","0.0"
"9760","16:25:50.325","0.0","0.0"
"9761","16:25:50.327","0.0","0.0"
"9761","16:25:50.327","0.0","0.0"
"9762","16:25:50.330","0.0","0.0"
"9762","16:25:50.330","0.0","0.0"
"9763","16:25:50.332","0.0","0.0"
"9763","16:25:50.332","0.0","0.0"
"9764","16:25:50.336","0.0","0.0"
"9764","16:25:50.337","0.0","0.0"
"9765","16:25:50.339","0.0","0.0"
"9765","16:25:50.339","0.0","0.0"
"9766","16:25:50.343","0.0","0.0"
"9766","16:25:50.343","0.0","0.0"
"9767","16:25:50.345","0.0","0.0"
"9767","16:25:50.346","0.0","0.0"
"9768","16:25:50.356","0.0","0.0"
"9768","16:25:50.357","0.0","0.0"
"9769","16:25:50.358","0.0","0.0"
"9769","16:25:50.359","0.0","0.0"
"9770","16:25:50.360","0.0","0.0"
"9770","16:25:50.361","0.0","0.0"
"9771","16:25:50.379","0.0","0.0"
"9771","16:25:50.380","0.0","0.0"
"9772","16:25:50.382","0.0","0.0"
"9772","16:25:50.384","0.0","0.0"
"9774","16:25:50.431","0.0","0.0"
"9774","16:25:50.431","0.0","0.0"
"9775","16:25:50.433","0.0","0.0"
"9775","16:25:50.433","0.0","0.0"
"9776","16:25:50.446","0.0","0.0"
"9776","16:25:50.448","0.0","0.0"
"9777","16:25:50.451","0.0","0.0"
"9777","16:25:50.451","0.0","0.0"
"9778","16:25:50.453","0.0","0.0"
"9778","16:25:50.453","0.0","0.0"
"9779","16:25:50.472","0.0","0.0"
"9779","16:25:50.472","0.0","0.0"
"9780","16:25:50.474","0.0","0.0"
"9780","16:25:50.474","0.0","0.0"
"9781","16:25:50.476","0.0","0.0"
"9781","16:25:50.476","0.0","0.0"
"9782","16:25:50.478","0.0","0.0"
"9782","16:25:50.478","0.0","0.0"
"9783","16:25:50.509","0.0","0.0"
"9783","16:25:50.510","0.0","0.0"
"9784","16:25:50.511","0.0","0.0"
"9784","16:25:50.512","0.0","0.0"
"9785","16:25:50.513","0.0","0.0"
"9785","16:25:50.514","0.0","0.0"
"9786","16:25:50.515","0.0","0.0"
"9786","16:25:50.516","0.0","0.0"
"9787","16:25:50.517","0.0","0.0"
"9787","16:25:50.520","0.0","0.0"
"9788","16:25:50.523","0.0","0.0"
"9788","16:25:50.523","0.0","0.0"
"9789","16:25:50.525","0.0","0.0"
"9789","16:25:50.525","0.0","0.0"
"9790","16:25:50.539","0.0","0.0"
"9790","16:25:50.541","0.0","0.0"
"9792","16:25:50.599","0.0","0.0"
"9792","16:25:50.600","0.0","0.0"
"9793","16:25:50.602","0.0","0.0"
"9793","16:25:50.602","0.0","0.0"
"9794","16:25:50.613","0.0","0.0"
"9794","16:25:50.614","0.0","0.0"
"9795","16:25:50.617","0.0","0.0"
"9795","16:25:50.617","0.0","0.0"
"9796","16:25:50.640","0.0","0.0"
"9796","16:25:50.640","0.0","0.0"
"9797","16:25:50.642","0.0","0.0"
"9797","16:25:50.642","0.0","0.0"
"9798","16:25:50.643","0.0","0.0"
"9798","16:25:50.644","0.0","0.0"
"9799","16:25:50.645","0.0","0.0"
"9799","16:25:50.646","0.0","0.0"
"9800","16:25:50.647","0.0","0.0"
"9800","16:25:50.648","0.0","0.0"
"9801","16:25:50.672","0.0","0.0"
"9801","16:25:50.673","0.0","0.0"
"9802","16:25:50.675","0.0","0.0"
"9802","16:25:50.675","0.0","0.0"
"9803","16:25:50.679","0.0","0.0"
"9803","16:25:50.679","0.0","0.0"
"9804","16:25:50.681","0.0","0.0"
"9804","16:25:50.681","0.0","0.0"
"9805","16:25:50.693","0.0","0.0"
"9805","16:25:50.694","0.0","0.0"
"9806","16:25:50.696","0.0","0.0"
"9806","16:25:50.696","0.0","0.0"
"9807","16:25:50.698","0.0","0.0"
"9807","16:25:50.698","0.0","0.0"
"9808","16:25:50.699","0.0","0.0"
"9808","16:25:50.701","0.0","0.0"
"9810","16:25:50.773","0.0","0.0"
"9810","16:25:50.773","0.0","0.0"
"9811","16:25:50.781","0.0","0.0"
"9811","16:25:50.781","0.0","0.0"
"9812","16:25:50.784","0.0","0.0"
"9812","16:25:50.784","0.0","0.0"
"9813","16:25:50.786","0.0","0.0"
"9813","16:25:50.786","0.0","0.0"
"9814","16:25:50.797","0.0","0.0"
"9814","16:25:50.797","0.0","0.0"
"9815","16:25:50.799","0.0","0.0"
"9815","16:25:50.799","0.0","0.0"
"9816","16:25:50.801","0.0","0.0"
"9816","16:25:50.801","0.0","0.0"
"9817","16:25:50.823","0.0","0.0"
"9817","16:25:50.823","0.0","0.0"
"9818","16:25:50.825","0.0","0.0"
"9818","16:25:50.825","0.0","0.0"
"9819","16:25:50.826","0.0","0.0"
"9819","16:25:50.826","0.0","0.0"
"9820","16:25:50.847","0.0","0.0"
"9820","16:25:50.847","0.0","0.0"
"9821","16:25:50.849","0.0","0.0"
"9821","16:25:50.850","0.0","0.0"
"9822","16:25:50.851","0.0","0.0"
"9822","16:25:50.852","0.0","0.0"
"9823","16:25:50.853","0.0","0.0"
"9823","16:25:50.853","0.0","0.0"
"9824","16:25:50.855","0.0","0.0"
"9824","16:25:50.855","0.0","0.0"
"9825","16:25:50.859","0.0","0.0"
"9825","16:25:50.859","0.0","0.0"
"9826","16:25:50.873","0.0","0.0"
"9826","16:25:50.874","0.0","0.0"
"9828","16:25:50.935","0.0","0.0"
"9828","16:25:50.936","0.0","0.0"
"9829","16:25:50.946","0.0","0.0"
"9829","16:25:50.947","0.0","0.0"
"9830","16:25:50.949","0.0","0.0"
"9830","16:25:50.949","0.0","0.0"
"9831","16:25:50.976","0.0","0.0"
"9831","16:25:50.976","0.0","0.0"
"9832","16:25:50.997","0.0","0.0"
"9832","16:25:50.997","0.0","0.0"
"9833","16:25:50.999","0.0","0.0"
"9833","16:25:50.999","0.0","0.0"
"9834","16:25:51.001","0.0","0.0"
"9834","16:25:51.001","0.0","0.0"
"9835","16:25:51.003","0.0","0.0"
"9835","16:25:51.004","0.0","0.0"
"9836","16:25:51.005","0.0","0.0"
"9836","16:25:51.005","0.0","0.0"
"9837","16:25:51.009","0.0","0.0"
"9837","16:25:51.009","0.0","0.0"
"9838","16:25:51.022","0.0","0.0"
"9838","16:25:51.022","0.0","0.0"
"9839","16:25:51.024","0.0","0.0"
"9839","16:25:51.024","0.0","0.0"
"9840","16:25:51.026","0.0","0.0"
"9840","16:25:51.026","0.0","0.0"
"9841","16:25:51.054","0.0","0.0"
"9841","16:25:51.054","0.0","0.0"
"9842","16:25:51.057","0.0","0.0"
"9842","16:25:51.057","0.0","0.0"
"9843","16:25:51.059","0.0","0.0"
"9843","16:25:51.059","0.0","0.0"
"9844","16:25:51.061","0.0","0.0"
"9844","16:25:51.063","0.0","0.0"
"9846","16:25:51.113","0.0","0.0"
"9846","16:25:51.113","0.0","0.0"
"9847","16:25:51.114","0.0","0.0"
"9847","16:25:51.115","0.0","0.0"
"9848","16:25:51.116","0.0","0.0"
"9848","16:25:51.116","0.0","0.0"
"9849","16:25:51.121","0.0","0.0"
"9849","16:25:51.121","0.0","0.0"
"9850","16:25:51.129","0.0","0.0"
"9850","16:25:51.129","0.0","0.0"
"9851","16:25:51.131","0.0","0.0"
"9851","16:25:51.131","0.0","0.0"
"9852","16:25:51.133","0.0","0.0"
"9852","16:25:51.133","0.0","0.0"
"9853","16:25:51.137","0.0","0.0"
"9853","16:25:51.138","0.0","0.0"
"9854","16:25:51.139","0.0","0.0"
"9854","16:25:51.140","0.0","0.0"
"9855","16:25:51.142","0.0","0.0"
"9855","16:25:51.142","0.0","0.0"
"9856","16:25:51.155","0.0","0.0"
"9856","16:25:51.155","0.0","0.0"
"9857","16:25:51.156","0.0","0.0"
"9857","16:25:51.157","0.0","0.0"
"9858","16:25:51.158","0.0","0.0"
"9858","16:25:51.158","0.0","0.0"
"9859","16:25:51.186","0.0","0.0"
"9859","16:25:51.186","0.0","0.0"
"9860","16:25:51.188","0.0","0.0"
"9860","16:25:51.188","0.0","0.0"
"9861","16:25:51.190","0.0","0.0"
"9861","16:25:51.190","0.0","0.0"
"9862","16:25:51.191","0.0","0.0"
"9862","16:25:51.193","0.0","0.0"
"9864","16:25:51.258","0.0","0.0"
"9864","16:25:51.258","0.0","0.0"
"9865","16:25:51.260","0.0","0.0"
"9865","16:25:51.261","0.0","0.0"
"9866","16:25:51.269","0.0","0.0"
"9866","16:25:51.270","0.0","0.0"
"9867","16:25:51.271","0.0","0.0"
"9867","16:25:51.272","0.0","0.0"
"9868","16:25:51.281","0.0","0.0"
"9868","16:25:51.281","0.0","0.0"
"9869","16:25:51.282","0.0","0.0"
"9869","16:25:51.283","0.0","0.0"
"9870","16:25:51.284","0.0","0.0"
"9870","16:25:51.284","0.0","0.0"
"9871","16:25:51.305","0.0","0.0"
"9871","16:25:51.305","0.0","0.0"
"9872","16:25:51.307","0.0","0.0"
"9872","16:25:51.307","0.0","0.0"
"9873","16:25:51.309","0.0","0.0"
"9873","16:25:51.310","0.0","0.0"
"9874","16:25:51.338","0.0","0.0"
"9874","16:25:51.338","0.0","0.0"
"9875","16:25:51.340","0.0","0.0"
"9875","16:25:51.340","0.0","0.0"
"9876","16:25:51.342","0.0","0.0"
"9876","16:25:51.342","0.0","0.0"
"9877","16:25:51.343","0.0","0.0"
"9877","16:25:51.344","0.0","0.0"
"9878","16:25:51.345","0.0","0.0"
"9878","16:25:51.345","0.0","0.0"
"9879","16:25:51.348","0.0","0.0"
"9879","16:25:51.348","0.0","0.0"
"9880","16:25:51.366","0.0","0.0"
"9880","16:25:51.368","0.0","0.0"
"9882","16:25:51.423","0.0","0.0"
"9882","16:25:51.424","0.0","0.0"
"9883","16:25:51.460","0.0","0.0"
"9883","16:25:51.460","0.0","0.0"
"9884","16:25:51.462","0.0","0.0"
"9884","16:25:51.463","0.0","0.0"
"9885","16:25:51.465","0.0","0.0"
"9885","16:25:51.465","0.0","0.0"
"9886","16:25:51.467","0.0","0.0"
"9886","16:25:51.467","0.0","0.0"
"9887","16:25:51.497","0.0","0.0"
"9887","16:25:51.498","0.0","0.0"
"9888","16:25:51.500","0.0","0.0"
"9888","16:25:51.500","0.0","0.0"
"9889","16:25:51.503","0.0","0.0"
"9889","16:25:51.503","0.0","0.0"
"9890","16:25:51.505","0.0","0.0"
"9890","16:25:51.506","0.0","0.0"
"9891","16:25:51.525","0.0","0.0"
"9891","16:25:51.525","0.0","0.0"
"9892","16:25:51.527","0.0","0.0"
"9892","16:25:51.527","0.0","0.0"
"9893","16:25:51.529","0.0","0.0"
"9893","16:25:51.530","0.0","0.0"
"9894","16:25:51.531","0.0","0.0"
"9894","16:25:51.532","0.0","0.0"
"9895","16:25:51.535","0.0","0.0"
"9895","16:25:51.535","0.0","0.0"
"9896","16:25:51.537","0.0","0.0"
"9896","16:25:51.537","0.0","0.0"
"9897","16:25:51.539","0.0","0.0"
"9897","16:25:51.539","0.0","0.0"
"9898","16:25:51.564","0.0","0.0"
"9898","16:25:51.566","0.0","0.0"
"9900","16:25:51.613","0.0","0.0"
"9900","16:25:51.613","0.0","0.0"
"9901","16:25:51.634","0.0","0.0"
"9901","16:25:51.634","0.0","0.0"
"9902","16:25:51.635","0.0","0.0"
"9902","16:25:51.636","0.0","0.0"
"9903","16:25:51.638","0.0","0.0"
"9903","16:25:51.638","0.0","0.0"
"9904","16:25:51.640","0.0","0.0"
"9904","16:25:51.640","0.0","0.0"
"9905","16:25:51.641","0.0","0.0"
"9905","16:25:51.642","0.0","0.0"
"9906","16:25:51.643","0.0","0.0"
"9906","16:25:51.644","0.0","0.0"
"9907","16:25:51.649","0.0","0.0"
"9907","16:25:51.650","0.0","0.0"
"9908","16:25:51.678","0.0","0.0"
"9908","16:25:51.678","0.0","0.0"
"9909","16:25:51.681","0.0","0.0"
"9909","16:25:51.681","0.0","0.0"
"9910","16:25:51.683","0.0","0.0"
"9910","16:25:51.683","0.0","0.0"
"9911","16:25:51.685","0.0","0.0"
"9911","16:25:51.686","0.0","0.0"
"9912","16:25:51.722","0.0","0.0"
"9912","16:25:51.722","0.0","0.0"
"9913","16:25:51.724","0.0","0.0"
"9913","16:25:51.725","0.0","0.0"
"9914","16:25:51.727","0.0","0.0"
"9914","16:25:51.727","0.0","0.0"
"9915","16:25:51.730","0.0","0.0"
"9915","16:25:51.731","0.0","0.0"
"9916","16:25:51.733","0.0","0.0"
"9916","16:25:51.735","0.0","0.0"
"9918","16:25:51.801","0.0","0.0"
"9918","16:25:51.801","0.0","0.0"
"9919","16:25:51.803","0.0","0.0"
"9919","16:25:51.804","0.0","0.0"
"9920","16:25:51.805","0.0","0.0"
"9920","16:25:51.805","0.0","0.0"
"9921","16:25:51.807","0.0","0.0"
"9921","16:25:51.807","0.0","0.0"
"9922","16:25:51.809","0.0","0.0"
"9922","16:25:51.809","0.0","0.0"
"9923","16:25:51.841","0.0","0.0"
"9923","16:25:51.842","0.0","0.0"
"9924","16:25:51.843","0.0","0.0"
"9924","16:25:51.844","0.0","0.0"
"9925","16:25:51.845","0.0","0.0"
"9925","16:25:51.846","0.0","0.0"
"9926","16:25:51.848","0.0","0.0"
"9926","16:25:51.848","0.0","0.0"
"9927","16:25:51.850","0.0","0.0"
"9927","16:25:51.851","0.0","0.0"
"9928","16:25:51.854","0.0","0.0"
"9928","16:25:51.854","0.0","0.0"
"9929","16:25:51.872","0.0","0.0"
"9929","16:25:51.872","0.0","0.0"
"9930","16:25:51.874","0.0","0.0"
"9930","16:25:51.874","0.0","0.0"
"9931","16:25:51.876","0.0","0.0"
"9931","16:25:51.876","0.0","0.0"
"9932","16:25:51.909","0.0","0.0"
"9932","16:25:51.909","0.0","0.0"
"9933","16:25:51.911","0.0","0.0"
"9933","16:25:51.911","0.0","0.0"
"9934","16:25:51.915","0.0","0.0"
"9934","16:25:51.917","0.0","0.0"
"9936","16:25:51.988","0.0","0.0"
"9936","16:25:51.993","0.0","0.0"
"9937","16:25:51.994","0.0","0.0"
"9937","16:25:51.994","0.0","0.0"
"9938","16:25:51.996","0.0","0.0"
"9938","16:25:51.997","0.0","0.0"
"9939","16:25:51.998","0.0","0.0"
"9939","16:25:51.999","0.0","0.0"
"9940","16:25:52.006","0.0","0.0"
"9940","16:25:52.006","0.0","0.0"
"9941","16:25:52.008","0.0","0.0"
"9941","16:25:52.009","0.0","0.0"
"9942","16:25:52.010","0.0","0.0"
"9942","16:25:52.011","0.0","0.0"
"9943","16:25:52.014","0.0","0.0"
"9943","16:25:52.015","0.0","0.0"
"9944","16:25:52.016","0.0","0.0"
"9944","16:25:52.017","0.0","0.0"
"9945","16:25:52.022","0.0","0.0"
"9945","16:25:52.022","0.0","0.0"
"9946","16:25:52.024","0.0","0.0"
"9946","16:25:52.025","0.0","0.0"
"9947","16:25:52.026","0.0","0.0"
"9947","16:25:52.026","0.0","0.0"
"9948","16:25:52.029","0.0","0.0"
"9948","16:25:52.029","0.0","0.0"
"9949","16:25:52.042","0.0","0.0"
"9949","16:25:52.043","0.0","0.0"
"9950","16:25:52.044","0.0","0.0"
"9950","16:25:52.044","0.0","0.0"
"9951","16:25:52.046","0.0","0.0"
"9951","16:25:52.046","0.0","0.0"
"9952","16:25:52.048","0.0","0.0"
"9952","16:25:52.065","0.0","0.0"
"9954","16:25:52.119","0.0","0.0"
"9954","16:25:52.120","0.0","0.0"
"9955","16:25:52.139","0.0","0.0"
"9955","16:25:52.139","0.0","0.0"
"9956","16:25:52.141","0.0","0.0"
"9956","16:25:52.141","0.0","0.0"
"9957","16:25:52.143","0.0","0.0"
"9957","16:25:52.143","0.0","0.0"
"9958","16:25:52.145","0.0","0.0"
"9958","16:25:52.145","0.0","0.0"
"9959","16:25:52.146","0.0","0.0"
"9959","16:25:52.147","0.0","0.0"
"9960","16:25:52.151","0.0","0.0"
"9960","16:25:52.151","0.0","0.0"
"9961","16:25:52.177","0.0","0.0"
"9961","16:25:52.178","0.0","0.0"
"9962","16:25:52.179","0.0","0.0"
"9962","16:25:52.180","0.0","0.0"
"9963","16:25:52.182","0.0","0.0"
"9963","16:25:52.182","0.0","0.0"
"9964","16:25:52.184","0.0","0.0"
"9964","16:25:52.184","0.0","0.0"
"9965","16:25:52.185","0.0","0.0"
"9965","16:25:52.186","0.0","0.0"
"9966","16:25:52.188","0.0","0.0"
"9966","16:25:52.188","0.0","0.0"
"9967","16:25:52.224","0.0","0.0"
"9967","16:25:52.225","0.0","0.0"
"9968","16:25:52.227","0.0","0.0"
"9968","16:25:52.227","0.0","0.0"
"9969","16:25:52.229","0.0","0.0"
"9969","16:25:52.229","0.0","0.0"
"9970","16:25:52.232","0.0","0.0"
"9970","16:25:52.234","0.0","0.0"
"9972","16:25:52.298","0.0","0.0"
"9972","16:25:52.298","0.0","0.0"
"9973","16:25:52.300","0.0","0.0"
"9973","16:25:52.300","0.0","0.0"
"9974","16:25:52.302","0.0","0.0"
"9974","16:25:52.302","0.0","0.0"
"9975","16:25:52.304","0.0","0.0"
"9975","16:25:52.304","0.0","0.0"
"9976","16:25:52.345","0.0","0.0"
"9976","16:25:52.346","0.0","0.0"
"9977","16:25:52.348","0.0","0.0"
"9977","16:25:52.348","0.0","0.0"
"9978","16:25:52.350","0.0","0.0"
"9978","16:25:52.351","0.0","0.0"
"9979","16:25:52.353","0.0","0.0"
"9979","16:25:52.353","0.0","0.0"
"9980","16:25:52.355","0.0","0.0"
"9980","16:25:52.355","0.0","0.0"
"9981","16:25:52.357","0.0","0.0"
"9981","16:25:52.357","0.0","0.0"
"9982","16:25:52.359","0.0","0.0"
"9982","16:25:52.360","0.0","0.0"
"9983","16:25:52.361","0.0","0.0"
"9983","16:25:52.361","0.0","0.0"
"9984","16:25:52.376","0.0","0.0"
"9984","16:25:52.376","0.0","0.0"
"9985","16:25:52.379","0.0","0.0"
"9985","16:25:52.379","0.0","0.0"
"9986","16:25:52.426","0.0","0.0"
"9986","16:25:52.426","0.0","0.0"
"9987","16:25:52.428","0.0","0.0"
"9987","16:25:52.429","0.0","0.0"
"9988","16:25:52.431","0.0","0.0"
"9988","16:25:52.432","0.0","0.0"
"9990","16:25:52.471","0.0","0.0"
"9990","16:25:52.471","0.0","0.0"
"9991","16:25:52.475","0.0","0.0"
"9991","16:25:52.476","0.0","0.0"
"9992","16:25:52.478","0.0","0.0"
"9992","16:25:52.478","0.0","0.0"
"9993","16:25:52.494","0.0","0.0"
"9993","16:25:52.495","0.0","0.0"
"9994","16:25:52.496","0.0","0.0"
"9994","16:25:52.496","0.0","0.0"
"9995","16:25:52.498","0.0","0.0"
"9995","16:25:52.499","0.0","0.0"
"9996","16:25:52.500","0.0","0.0"
"9996","16:25:52.500","0.0","0.0"
"9997","16:25:52.502","0.0","0.0"
"9997","16:25:52.502","0.0","0.0"
"9998","16:25:52.503","0.0","0.0"
"9998","16:25:52.504","0.0","0.0"
"9999","16:25:52.533","0.0","0.0"
"9999","16:25:52.534","0.0","0.0"
"10000","16:25:52.535","0.0","0.0"
"10000","16:25:52.535","0.0","0.0"
"10004","16:25:52.543","0.0","0.0"
"10004","16:25:52.543","0.0","0.0"
"10005","16:25:52.546","0.0","0.0"
"10005","16:25:52.546","0.0","0.0"
"10006","16:25:52.559","0.0","0.0"
"10006","16:25:52.562","0.0","0.0"
"10008","16:25:52.642","0.0","0.0"
"10008","16:25:52.642","0.0","0.0"
"10009","16:25:52.649","0.0","0.0"
"10009","16:25:52.650","0.0","0.0"
"10010","16:25:52.651","0.0","0.0"
"10010","16:25:52.652","0.0","0.0"
"10011","16:25:52.654","0.0","0.0"
"10011","16:25:52.654","0.0","0.0"
"10012","16:25:52.668","0.0","0.0"
"10012","16:25:52.668","0.0","0.0"
"10013","16:25:52.670","0.0","0.0"
"10013","16:25:52.670","0.0","0.0"
"10014","16:25:52.672","0.0","0.0"
"10014","16:25:52.672","0.0","0.0"
"10015","16:25:52.685","0.0","0.0"
"10015","16:25:52.685","0.0","0.0"
"10016","16:25:52.687","0.0","0.0"
"10016","16:25:52.687","0.0","0.0"
"10017","16:25:52.690","0.0","0.0"
"10017","16:25:52.690","0.0","0.0"
"10018","16:25:52.702","0.0","0.0"
"10018","16:25:52.702","0.0","0.0"
"10019","16:25:52.704","0.0","0.0"
"10019","16:25:52.705","0.0","0.0"
"10020","16:25:52.706","0.0","0.0"
"10020","16:25:52.707","0.0","0.0"
"10021","16:25:52.721","0.0","0.0"
"10021","16:25:52.722","0.0","0.0"
"10022","16:25:52.724","0.0","0.0"
"10022","16:25:52.724","0.0","0.0"
"10023","16:25:52.738","0.0","0.0"
"10023","16:25:52.738","0.0","0.0"
"10024","16:25:52.740","0.0","0.0"
"10024","16:25:52.742","0.0","0.0"
"10026","16:25:52.810","0.0","0.0"
"10026","16:25:52.811","0.0","0.0"
"10027","16:25:52.816","0.0","0.0"
"10027","16:25:52.816","0.0","0.0"
"10028","16:25:52.819","0.0","0.0"
"10028","16:25:52.819","0.0","0.0"
"10029","16:25:52.821","0.0","0.0"
"10029","16:25:52.821","0.0","0.0"
"10030","16:25:52.833","0.0","0.0"
"10030","16:25:52.833","0.0","0.0"
"10031","16:25:52.835","0.0","0.0"
"10031","16:25:52.836","0.0","0.0"
"10032","16:25:52.837","0.0","0.0"
"10032","16:25:52.838","0.0","0.0"
"10033","16:25:52.853","0.0","0.0"
"10033","16:25:52.853","0.0","0.0"
"10034","16:25:52.855","0.0","0.0"
"10034","16:25:52.855","0.0","0.0"
"10035","16:25:52.857","0.0","0.0"
"10035","16:25:52.857","0.0","0.0"
"10036","16:25:52.870","0.0","0.0"
"10036","16:25:52.870","0.0","0.0"
"10037","16:25:52.872","0.0","0.0"
"10037","16:25:52.873","0.0","0.0"
"10038","16:25:52.890","0.0","0.0"
"10038","16:25:52.891","0.0","0.0"
"10039","16:25:52.892","0.0","0.0"
"10039","16:25:52.893","0.0","0.0"
"10040","16:25:52.904","0.0","0.0"
"10040","16:25:52.904","0.0","0.0"
"10041","16:25:52.906","0.0","0.0"
"10041","16:25:52.906","0.0","0.0"
"10042","16:25:52.908","0.0","0.0"
"10042","16:25:52.919","0.0","0.0"
"10044","16:25:52.980","0.0","0.0"
"10044","16:25:52.980","0.0","0.0"
"10045","16:25:52.985","0.0","0.0"
"10045","16:25:52.985","0.0","0.0"
"10046","16:25:52.987","0.0","0.0"
"10046","16:25:52.988","0.0","0.0"
"10047","16:25:52.990","0.0","0.0"
"10047","16:25:52.990","0.0","0.0"
"10048","16:25:53.002","0.0","0.0"
"10048","16:25:53.002","0.0","0.0"
"10049","16:25:53.021","0.0","0.0"
"10049","16:25:53.021","0.0","0.0"
"10050","16:25:53.023","0.0","0.0"
"10050","16:25:53.023","0.0","0.0"
"10051","16:25:53.025","0.0","0.0"
"10051","16:25:53.025","0.0","0.0"
"10052","16:25:53.026","0.0","0.0"
"10052","16:25:53.026","0.0","0.0"
"10053","16:25:53.055","0.0","0.0"
"10053","16:25:53.056","0.0","0.0"
"10054","16:25:53.057","0.0","0.0"
"10054","16:25:53.058","0.0","0.0"
"10055","16:25:53.059","0.0","0.0"
"10055","16:25:53.059","0.0","0.0"
"10056","16:25:53.061","0.0","0.0"
"10056","16:25:53.061","0.0","0.0"
"10057","16:25:53.063","0.0","0.0"
"10057","16:25:53.063","0.0","0.0"
"10058","16:25:53.066","0.0","0.0"
"10058","16:25:53.066","0.0","0.0"
"10059","16:25:53.072","0.0","0.0"
"10059","16:25:53.073","0.0","0.0"
"10060","16:25:53.087","0.0","0.0"
"10060","16:25:53.089","0.0","0.0"
"10062","16:25:53.130","0.0","0.0"
"10062","16:25:53.131","0.0","0.0"
"10063","16:25:53.135","0.0","0.0"
"10063","16:25:53.135","0.0","0.0"
"10064","16:25:53.137","0.0","0.0"
"10064","16:25:53.137","0.0","0.0"
"10065","16:25:53.154","0.0","0.0"
"10065","16:25:53.154","0.0","0.0"
"10066","16:25:53.156","0.0","0.0"
"10066","16:25:53.156","0.0","0.0"
"10067","16:25:53.158","0.0","0.0"
"10067","16:25:53.159","0.0","0.0"
"10068","16:25:53.169","0.0","0.0"
"10068","16:25:53.170","0.0","0.0"
"10069","16:25:53.187","0.0","0.0"
"10069","16:25:53.188","0.0","0.0"
"10070","16:25:53.190","0.0","0.0"
"10070","16:25:53.190","0.0","0.0"
"10071","16:25:53.192","0.0","0.0"
"10071","16:25:53.192","0.0","0.0"
"10072","16:25:53.194","0.0","0.0"
"10072","16:25:53.194","0.0","0.0"
"10073","16:25:53.196","0.0","0.0"
"10073","16:25:53.196","0.0","0.0"
"10074","16:25:53.206","0.0","0.0"
"10074","16:25:53.206","0.0","0.0"
"10075","16:25:53.228","0.0","0.0"
"10075","16:25:53.228","0.0","0.0"
"10076","16:25:53.230","0.0","0.0"
"10076","16:25:53.230","0.0","0.0"
"10077","16:25:53.240","0.0","0.0"
"10077","16:25:53.240","0.0","0.0"
"10078","16:25:53.244","0.0","0.0"
"10078","16:25:53.247","0.0","0.0"
"10080","16:25:53.298","0.0","0.0"
"10080","16:25:53.298","0.0","0.0"
"10081","16:25:53.319","0.0","0.0"
"10081","16:25:53.319","0.0","0.0"
"10082","16:25:53.321","0.0","0.0"
"10082","16:25:53.321","0.0","0.0"
"10083","16:25:53.323","0.0","0.0"
"10083","16:25:53.323","0.0","0.0"
"10084","16:25:53.325","0.0","0.0"
"10084","16:25:53.325","0.0","0.0"
"10085","16:25:53.327","0.0","0.0"
"10085","16:25:53.327","0.0","0.0"
"10086","16:25:53.334","0.0","0.0"
"10086","16:25:53.335","0.0","0.0"
"10087","16:25:53.359","0.0","0.0"
"10087","16:25:53.359","0.0","0.0"
"10088","16:25:53.361","0.0","0.0"
"10088","16:25:53.361","0.0","0.0"
"10089","16:25:53.363","0.0","0.0"
"10089","16:25:53.364","0.0","0.0"
"10090","16:25:53.366","0.0","0.0"
"10090","16:25:53.366","0.0","0.0"
"10091","16:25:53.368","0.0","0.0"
"10091","16:25:53.368","0.0","0.0"
"10092","16:25:53.371","0.0","0.0"
"10092","16:25:53.371","0.0","0.0"
"10093","16:25:53.375","0.0","0.0"
"10093","16:25:53.376","0.0","0.0"
"10094","16:25:53.389","0.0","0.0"
"10094","16:25:53.389","0.0","0.0"
"10095","16:25:53.391","0.0","0.0"
"10095","16:25:53.391","0.0","0.0"
"10096","16:25:53.405","0.0","0.0"
"10096","16:25:53.407","0.0","0.0"
"10098","16:25:53.466","0.0","0.0"
"10098","16:25:53.466","0.0","0.0"
"10099","16:25:53.486","0.0","0.0"
"10099","16:25:53.486","0.0","0.0"
"10100","16:25:53.501","0.0","0.0"
"10100","16:25:53.502","0.0","0.0"
"10101","16:25:53.505","0.0","0.0"
"10101","16:25:53.505","0.0","0.0"
"10102","16:25:53.510","0.0","0.0"
"10102","16:25:53.510","0.0","0.0"
"10103","16:25:53.517","0.0","0.0"
"10103","16:25:53.518","0.0","0.0"
"10104","16:25:53.520","0.0","0.0"
"10104","16:25:53.520","0.0","0.0"
"10105","16:25:53.522","0.0","0.0"
"10105","16:25:53.523","0.0","0.0"
"10106","16:25:53.541","0.0","0.0"
"10106","16:25:53.541","0.0","0.0"
"10107","16:25:53.544","0.0","0.0"
"10107","16:25:53.544","0.0","0.0"
"10108","16:25:53.546","0.0","0.0"
"10108","16:25:53.546","0.0","0.0"
"10109","16:25:53.557","0.0","0.0"
"10109","16:25:53.557","0.0","0.0"
"10110","16:25:53.559","0.0","0.0"
"10110","16:25:53.559","0.0","0.0"
"10111","16:25:53.563","0.0","0.0"
"10111","16:25:53.563","0.0","0.0"
"10112","16:25:53.574","0.0","0.0"
"10112","16:25:53.575","0.0","0.0"
"10113","16:25:53.576","0.0","0.0"
"10113","16:25:53.577","0.0","0.0"
"10114","16:25:53.579","0.0","0.0"
"10114","16:25:53.589","0.0","0.0"
"10116","16:25:53.657","0.0","0.0"
"10116","16:25:53.657","0.0","0.0"
"10117","16:25:53.659","0.0","0.0"
"10117","16:25:53.659","0.0","0.0"
"10118","16:25:53.669","0.0","0.0"
"10118","16:25:53.670","0.0","0.0"
"10119","16:25:53.672","0.0","0.0"
"10119","16:25:53.672","0.0","0.0"
"10120","16:25:53.691","0.0","0.0"
"10120","16:25:53.692","0.0","0.0"
"10121","16:25:53.694","0.0","0.0"
"10121","16:25:53.694","0.0","0.0"
"10122","16:25:53.697","0.0","0.0"
"10122","16:25:53.697","0.0","0.0"
"10123","16:25:53.710","0.0","0.0"
"10123","16:25:53.711","0.0","0.0"
"10124","16:25:53.713","0.0","0.0"
"10124","16:25:53.713","0.0","0.0"
"10125","16:25:53.717","0.0","0.0"
"10125","16:25:53.717","0.0","0.0"
"10126","16:25:53.731","0.0","0.0"
"10126","16:25:53.731","0.0","0.0"
"10127","16:25:53.733","0.0","0.0"
"10127","16:25:53.734","0.0","0.0"
"10128","16:25:53.736","0.0","0.0"
"10128","16:25:53.736","0.0","0.0"
"10129","16:25:53.738","0.0","0.0"
"10129","16:25:53.738","0.0","0.0"
"10130","16:25:53.748","0.0","0.0"
"10130","16:25:53.748","0.0","0.0"
"10131","16:25:53.750","0.0","0.0"
"10131","16:25:53.750","0.0","0.0"
"10132","16:25:53.777","0.0","0.0"
"10132","16:25:53.779","0.0","0.0"
"10134","16:25:53.823","0.0","0.0"
"10134","16:25:53.823","0.0","0.0"
"10135","16:25:53.825","0.0","0.0"
"10135","16:25:53.825","0.0","0.0"
"10136","16:25:53.835","0.0","0.0"
"10136","16:25:53.835","0.0","0.0"
"10137","16:25:53.837","0.0","0.0"
"10137","16:25:53.838","0.0","0.0"
"10138","16:25:53.861","0.0","0.0"
"10138","16:25:53.861","0.0","0.0"
"10139","16:25:53.863","0.0","0.0"
"10139","16:25:53.863","0.0","0.0"
"10140","16:25:53.865","0.0","0.0"
"10140","16:25:53.866","0.0","0.0"
"10141","16:25:53.875","0.0","0.0"
"10141","16:25:53.875","0.0","0.0"
"10142","16:25:53.877","0.0","0.0"
"10142","16:25:53.878","0.0","0.0"
"10143","16:25:53.880","0.0","0.0"
"10143","16:25:53.880","0.0","0.0"
"10144","16:25:53.910","0.0","0.0"
"10144","16:25:53.910","0.0","0.0"
"10145","16:25:53.930","0.0","0.0"
"10145","16:25:53.930","0.0","0.0"
"10146","16:25:53.933","0.0","0.0"
"10146","16:25:53.933","0.0","0.0"
"10147","16:25:53.935","0.0","0.0"
"10147","16:25:53.936","0.0","0.0"
"10148","16:25:53.938","0.0","0.0"
"10148","16:25:53.938","0.0","0.0"
"10149","16:25:53.948","0.0","0.0"
"10149","16:25:53.948","0.0","0.0"
"10150","16:25:53.950","0.0","0.0"
"10150","16:25:53.952","0.0","0.0"
"10152","16:25:53.993","0.0","0.0"
"10152","16:25:53.993","0.0","0.0"
"10153","16:25:54.001","0.0","0.0"
"10153","16:25:54.002","0.0","0.0"
"10154","16:25:54.004","0.0","0.0"
"10154","16:25:54.004","0.0","0.0"
"10155","16:25:54.006","0.0","0.0"
"10155","16:25:54.006","0.0","0.0"
"10156","16:25:54.018","0.0","0.0"
"10156","16:25:54.018","0.0","0.0"
"10157","16:25:54.040","0.0","0.0"
"10157","16:25:54.040","0.0","0.0"
"10158","16:25:54.041","0.0","0.0"
"10158","16:25:54.042","0.0","0.0"
"10159","16:25:54.059","0.0","0.0"
"10159","16:25:54.059","0.0","0.0"
"10160","16:25:54.061","0.0","0.0"
"10160","16:25:54.061","0.0","0.0"
"10161","16:25:54.063","0.0","0.0"
"10161","16:25:54.064","0.0","0.0"
"10162","16:25:54.068","0.0","0.0"
"10162","16:25:54.068","0.0","0.0"
"10163","16:25:54.077","0.0","0.0"
"10163","16:25:54.078","0.0","0.0"
"10164","16:25:54.079","0.0","0.0"
"10164","16:25:54.079","0.0","0.0"
"10165","16:25:54.084","0.0","0.0"
"10165","16:25:54.085","0.0","0.0"
"10166","16:25:54.103","0.0","0.0"
"10166","16:25:54.103","0.0","0.0"
"10167","16:25:54.105","0.0","0.0"
"10167","16:25:54.105","0.0","0.0"
"10168","16:25:54.107","0.0","0.0"
"10168","16:25:54.126","0.0","0.0"
"10170","16:25:54.164","0.0","0.0"
"10170","16:25:54.164","0.0","0.0"
"10171","16:25:54.167","0.0","0.0"
"10171","16:25:54.167","0.0","0.0"
"10172","16:25:54.169","0.0","0.0"
"10172","16:25:54.169","0.0","0.0"
"10173","16:25:54.172","0.0","0.0"
"10173","16:25:54.172","0.0","0.0"
"10174","16:25:54.191","0.0","0.0"
"10174","16:25:54.191","0.0","0.0"
"10175","16:25:54.196","0.0","0.0"
"10175","16:25:54.196","0.0","0.0"
"10176","16:25:54.198","0.0","0.0"
"10176","16:25:54.198","0.0","0.0"
"10177","16:25:54.222","0.0","0.0"
"10177","16:25:54.222","0.0","0.0"
"10178","16:25:54.224","0.0","0.0"
"10178","16:25:54.224","0.0","0.0"
"10179","16:25:54.226","0.0","0.0"
"10179","16:25:54.227","0.0","0.0"
"10180","16:25:54.239","0.0","0.0"
"10180","16:25:54.239","0.0","0.0"
"10181","16:25:54.242","0.0","0.0"
"10181","16:25:54.242","0.0","0.0"
"10182","16:25:54.244","0.0","0.0"
"10182","16:25:54.244","0.0","0.0"
"10183","16:25:54.246","0.0","0.0"
"10183","16:25:54.246","0.0","0.0"
"10184","16:25:54.248","0.0","0.0"
"10184","16:25:54.250","0.0","0.0"
"10185","16:25:54.252","0.0","0.0"
"10185","16:25:54.253","0.0","0.0"
"10186","16:25:54.262","0.0","0.0"
"10186","16:25:54.264","0.0","0.0"
"10188","16:25:54.329","0.0","0.0"
"10188","16:25:54.329","0.0","0.0"
"10189","16:25:54.335","0.0","0.0"
"10189","16:25:54.336","0.0","0.0"
"10190","16:25:54.338","0.0","0.0"
"10190","16:25:54.338","0.0","0.0"
"10191","16:25:54.340","0.0","0.0"
"10191","16:25:54.340","0.0","0.0"
"10192","16:25:54.353","0.0","0.0"
"10192","16:25:54.353","0.0","0.0"
"10193","16:25:54.355","0.0","0.0"
"10193","16:25:54.355","0.0","0.0"
"10194","16:25:54.357","0.0","0.0"
"10194","16:25:54.357","0.0","0.0"
"10195","16:25:54.376","0.0","0.0"
"10195","16:25:54.377","0.0","0.0"
"10196","16:25:54.378","0.0","0.0"
"10196","16:25:54.379","0.0","0.0"
"10197","16:25:54.381","0.0","0.0"
"10197","16:25:54.381","0.0","0.0"
"10198","16:25:54.404","0.0","0.0"
"10198","16:25:54.404","0.0","0.0"
"10199","16:25:54.406","0.0","0.0"
"10199","16:25:54.406","0.0","0.0"
"10200","16:25:54.408","0.0","0.0"
"10200","16:25:54.409","0.0","0.0"
"10201","16:25:54.429","0.0","0.0"
"10201","16:25:54.430","0.0","0.0"
"10202","16:25:54.431","0.0","0.0"
"10202","16:25:54.432","0.0","0.0"
"10203","16:25:54.434","0.0","0.0"
"10203","16:25:54.434","0.0","0.0"
"10204","16:25:54.436","0.0","0.0"
"10204","16:25:54.438","0.0","0.0"
"10206","16:25:54.499","0.0","0.0"
"10206","16:25:54.499","0.0","0.0"
"10207","16:25:54.519","0.0","0.0"
"10207","16:25:54.519","0.0","0.0"
"10208","16:25:54.521","0.0","0.0"
"10208","16:25:54.522","0.0","0.0"
"10209","16:25:54.523","0.0","0.0"
"10209","16:25:54.524","0.0","0.0"
"10210","16:25:54.525","0.0","0.0"
"10210","16:25:54.526","0.0","0.0"
"10211","16:25:54.527","0.0","0.0"
"10211","16:25:54.528","0.0","0.0"
"10212","16:25:54.530","0.0","0.0"
"10212","16:25:54.530","0.0","0.0"
"10213","16:25:54.559","0.0","0.0"
"10213","16:25:54.559","0.0","0.0"
"10214","16:25:54.561","0.0","0.0"
"10214","16:25:54.561","0.0","0.0"
"10215","16:25:54.563","0.0","0.0"
"10215","16:25:54.563","0.0","0.0"
"10216","16:25:54.564","0.0","0.0"
"10216","16:25:54.565","0.0","0.0"
"10217","16:25:54.566","0.0","0.0"
"10217","16:25:54.567","0.0","0.0"
"10218","16:25:54.569","0.0","0.0"
"10218","16:25:54.569","0.0","0.0"
"10219","16:25:54.587","0.0","0.0"
"10219","16:25:54.587","0.0","0.0"
"10220","16:25:54.592","0.0","0.0"
"10220","16:25:54.593","0.0","0.0"
"10221","16:25:54.595","0.0","0.0"
"10221","16:25:54.595","0.0","0.0"
"10222","16:25:54.611","0.0","0.0"
"10222","16:25:54.613","0.0","0.0"
"10224","16:25:54.668","0.0","0.0"
"10224","16:25:54.669","0.0","0.0"
"10225","16:25:54.687","0.0","0.0"
"10225","16:25:54.687","0.0","0.0"
"10226","16:25:54.689","0.0","0.0"
"10226","16:25:54.689","0.0","0.0"
"10227","16:25:54.691","0.0","0.0"
"10227","16:25:54.691","0.0","0.0"
"10228","16:25:54.693","0.0","0.0"
"10228","16:25:54.693","0.0","0.0"
"10229","16:25:54.695","0.0","0.0"
"10229","16:25:54.695","0.0","0.0"
"10230","16:25:54.711","0.0","0.0"
"10230","16:25:54.712","0.0","0.0"
"10231","16:25:54.713","0.0","0.0"
"10231","16:25:54.714","0.0","0.0"
"10232","16:25:54.715","0.0","0.0"
"10232","16:25:54.715","0.0","0.0"
"10233","16:25:54.717","0.0","0.0"
"10233","16:25:54.718","0.0","0.0"
"10234","16:25:54.753","0.0","0.0"
"10234","16:25:54.757","0.0","0.0"
"10235","16:25:54.762","0.0","0.0"
"10235","16:25:54.762","0.0","0.0"
"10236","16:25:54.764","0.0","0.0"
"10236","16:25:54.765","0.0","0.0"
"10237","16:25:54.777","0.0","0.0"
"10237","16:25:54.777","0.0","0.0"
"10238","16:25:54.779","0.0","0.0"
"10238","16:25:54.779","0.0","0.0"
"10239","16:25:54.781","0.0","0.0"
"10239","16:25:54.781","0.0","0.0"
"10240","16:25:54.783","0.0","0.0"
"10240","16:25:54.785","0.0","0.0"
"10242","16:25:54.838","0.0","0.0"
"10242","16:25:54.838","0.0","0.0"
"10243","16:25:54.853","0.0","0.0"
"10243","16:25:54.853","0.0","0.0"
"10244","16:25:54.856","0.0","0.0"
"10244","16:25:54.856","0.0","0.0"
"10245","16:25:54.858","0.0","0.0"
"10245","16:25:54.858","0.0","0.0"
"10246","16:25:54.872","0.0","0.0"
"10246","16:25:54.873","0.0","0.0"
"10247","16:25:54.875","0.0","0.0"
"10247","16:25:54.875","0.0","0.0"
"10248","16:25:54.877","0.0","0.0"
"10248","16:25:54.878","0.0","0.0"
"10249","16:25:54.896","0.0","0.0"
"10249","16:25:54.896","0.0","0.0"
"10250","16:25:54.898","0.0","0.0"
"10250","16:25:54.898","0.0","0.0"
"10251","16:25:54.900","0.0","0.0"
"10251","16:25:54.900","0.0","0.0"
"10252","16:25:54.902","0.0","0.0"
"10252","16:25:54.902","0.0","0.0"
"10253","16:25:54.904","0.0","0.0"
"10253","16:25:54.904","0.0","0.0"
"10254","16:25:54.909","0.0","0.0"
"10254","16:25:54.910","0.0","0.0"
"10255","16:25:54.926","0.0","0.0"
"10255","16:25:54.926","0.0","0.0"
"10256","16:25:54.931","0.0","0.0"
"10256","16:25:54.931","0.0","0.0"
"10257","16:25:54.933","0.0","0.0"
"10257","16:25:54.933","0.0","0.0"
"10258","16:25:54.955","0.0","0.0"
"10258","16:25:54.957","0.0","0.0"
"10260","16:25:55.015","0.0","0.0"
"10260","16:25:55.015","0.0","0.0"
"10261","16:25:55.017","0.0","0.0"
"10261","16:25:55.017","0.0","0.0"
"10262","16:25:55.019","0.0","0.0"
"10262","16:25:55.020","0.0","0.0"
"10263","16:25:55.023","0.0","0.0"
"10263","16:25:55.024","0.0","0.0"
"10264","16:25:55.046","0.0","0.0"
"10264","16:25:55.047","0.0","0.0"
"10265","16:25:55.049","0.0","0.0"
"10265","16:25:55.049","0.0","0.0"
"10266","16:25:55.051","0.0","0.0"
"10266","16:25:55.052","0.0","0.0"
"10267","16:25:55.053","0.0","0.0"
"10267","16:25:55.054","0.0","0.0"
"10268","16:25:55.056","0.0","0.0"
"10268","16:25:55.056","0.0","0.0"
"10269","16:25:55.067","0.0","0.0"
"10269","16:25:55.067","0.0","0.0"
"10270","16:25:55.069","0.0","0.0"
"10270","16:25:55.069","0.0","0.0"
"10271","16:25:55.071","0.0","0.0"
"10271","16:25:55.071","0.0","0.0"
"10272","16:25:55.072","0.0","0.0"
"10272","16:25:55.073","0.0","0.0"
"10273","16:25:55.099","0.0","0.0"
"10273","16:25:55.099","0.0","0.0"
"10274","16:25:55.101","0.0","0.0"
"10274","16:25:55.101","0.0","0.0"
"10275","16:25:55.103","0.0","0.0"
"10275","16:25:55.103","0.0","0.0"
"10276","16:25:55.124","0.0","0.0"
"10276","16:25:55.126","0.0","0.0"
"10278","16:25:55.172","0.0","0.0"
"10278","16:25:55.173","0.0","0.0"
"10279","16:25:55.187","0.0","0.0"
"10279","16:25:55.187","0.0","0.0"
"10280","16:25:55.190","0.0","0.0"
"10280","16:25:55.190","0.0","0.0"
"10281","16:25:55.192","0.0","0.0"
"10281","16:25:55.192","0.0","0.0"
"10282","16:25:55.210","0.0","0.0"
"10282","16:25:55.210","0.0","0.0"
"10283","16:25:55.214","0.0","0.0"
"10283","16:25:55.215","0.0","0.0"
"10284","16:25:55.217","0.0","0.0"
"10284","16:25:55.217","0.0","0.0"
"10285","16:25:55.245","0.0","0.0"
"10285","16:25:55.246","0.0","0.0"
"10286","16:25:55.248","0.0","0.0"
"10286","16:25:55.248","0.0","0.0"
"10287","16:25:55.251","0.0","0.0"
"10287","16:25:55.251","0.0","0.0"
"10288","16:25:55.253","0.0","0.0"
"10288","16:25:55.253","0.0","0.0"
"10289","16:25:55.254","0.0","0.0"
"10289","16:25:55.254","0.0","0.0"
"10290","16:25:55.256","0.0","0.0"
"10290","16:25:55.256","0.0","0.0"
"10291","16:25:55.270","0.0","0.0"
"10291","16:25:55.271","0.0","0.0"
"10292","16:25:55.272","0.0","0.0"
"10292","16:25:55.272","0.0","0.0"
"10293","16:25:55.274","0.0","0.0"
"10293","16:25:55.274","0.0","0.0"
"10294","16:25:55.275","0.0","0.0"
"10294","16:25:55.277","0.0","0.0"
"10296","16:25:55.360","0.0","0.0"
"10296","16:25:55.361","0.0","0.0"
"10297","16:25:55.370","0.0","0.0"
"10297","16:25:55.370","0.0","0.0"
"10298","16:25:55.372","0.0","0.0"
"10298","16:25:55.372","0.0","0.0"
"10299","16:25:55.374","0.0","0.0"
"10299","16:25:55.374","0.0","0.0"
"10300","16:25:55.387","0.0","0.0"
"10300","16:25:55.387","0.0","0.0"
"10301","16:25:55.389","0.0","0.0"
"10301","16:25:55.389","0.0","0.0"
"10302","16:25:55.391","0.0","0.0"
"10302","16:25:55.392","0.0","0.0"
"10303","16:25:55.413","0.0","0.0"
"10303","16:25:55.413","0.0","0.0"
"10304","16:25:55.418","0.0","0.0"
"10304","16:25:55.418","0.0","0.0"
"10305","16:25:55.420","0.0","0.0"
"10305","16:25:55.421","0.0","0.0"
"10306","16:25:55.445","0.0","0.0"
"10306","16:25:55.445","0.0","0.0"
"10307","16:25:55.447","0.0","0.0"
"10307","16:25:55.447","0.0","0.0"
"10308","16:25:55.450","0.0","0.0"
"10308","16:25:55.451","0.0","0.0"
"10309","16:25:55.453","0.0","0.0"
"10309","16:25:55.453","0.0","0.0"
"10310","16:25:55.454","0.0","0.0"
"10310","16:25:55.455","0.0","0.0"
"10311","16:25:55.456","0.0","0.0"
"10311","16:25:55.457","0.0","0.0"
"10312","16:25:55.479","0.0","0.0"
"10312","16:25:55.481","0.0","0.0"
"10314","16:25:55.554","0.0","0.0"
"10314","16:25:55.554","0.0","0.0"
"10315","16:25:55.556","0.0","0.0"
"10315","16:25:55.556","0.0","0.0"
"10316","16:25:55.558","0.0","0.0"
"10316","16:25:55.558","0.0","0.0"
"10317","16:25:55.563","0.0","0.0"
"10317","16:25:55.563","0.0","0.0"
"10318","16:25:55.565","0.0","0.0"
"10318","16:25:55.566","0.0","0.0"
"10319","16:25:55.568","0.0","0.0"
"10319","16:25:55.569","0.0","0.0"
"10320","16:25:55.572","0.0","0.0"
"10320","16:25:55.572","0.0","0.0"
"10321","16:25:55.593","0.0","0.0"
"10321","16:25:55.593","0.0","0.0"
"10322","16:25:55.595","0.0","0.0"
"10322","16:25:55.596","0.0","0.0"
"10323","16:25:55.598","0.0","0.0"
"10323","16:25:55.598","0.0","0.0"
"10324","16:25:55.600","0.0","0.0"
"10324","16:25:55.601","0.0","0.0"
"10325","16:25:55.604","0.0","0.0"
"10325","16:25:55.604","0.0","0.0"
"10326","16:25:55.607","0.0","0.0"
"10326","16:25:55.607","0.0","0.0"
"10327","16:25:55.620","0.0","0.0"
"10327","16:25:55.621","0.0","0.0"
"10328","16:25:55.624","0.0","0.0"
"10328","16:25:55.625","0.0","0.0"
"10329","16:25:55.637","0.0","0.0"
"10329","16:25:55.637","0.0","0.0"
"10330","16:25:55.653","0.0","0.0"
"10330","16:25:55.655","0.0","0.0"
"10332","16:25:55.699","0.0","0.0"
"10332","16:25:55.701","0.0","0.0"
"10333","16:25:55.704","0.0","0.0"
"10333","16:25:55.704","0.0","0.0"
"10334","16:25:55.719","0.0","0.0"
"10334","16:25:55.719","0.0","0.0"
"10335","16:25:55.721","0.0","0.0"
"10335","16:25:55.721","0.0","0.0"
"10336","16:25:55.723","0.0","0.0"
"10336","16:25:55.723","0.0","0.0"
"10337","16:25:55.744","0.0","0.0"
"10337","16:25:55.744","0.0","0.0"
"10338","16:25:55.746","0.0","0.0"
"10338","16:25:55.746","0.0","0.0"
"10339","16:25:55.747","0.0","0.0"
"10339","16:25:55.747","0.0","0.0"
"10340","16:25:55.749","0.0","0.0"
"10340","16:25:55.749","0.0","0.0"
"10341","16:25:55.751","0.0","0.0"
"10341","16:25:55.751","0.0","0.0"
"10342","16:25:55.773","0.0","0.0"
"10342","16:25:55.773","0.0","0.0"
"10343","16:25:55.775","0.0","0.0"
"10343","16:25:55.775","0.0","0.0"
"10344","16:25:55.779","0.0","0.0"
"10344","16:25:55.779","0.0","0.0"
"10345","16:25:55.798","0.0","0.0"
"10345","16:25:55.798","0.0","0.0"
"10346","16:25:55.799","0.0","0.0"
"10346","16:25:55.799","0.0","0.0"
"10347","16:25:55.801","0.0","0.0"
"10347","16:25:55.802","0.0","0.0"
"10348","16:25:55.803","0.0","0.0"
"10348","16:25:55.805","0.0","0.0"
"10350","16:25:55.870","0.0","0.0"
"10350","16:25:55.870","0.0","0.0"
"10351","16:25:55.872","0.0","0.0"
"10351","16:25:55.872","0.0","0.0"
"10352","16:25:55.874","0.0","0.0"
"10352","16:25:55.874","0.0","0.0"
"10353","16:25:55.887","0.0","0.0"
"10353","16:25:55.887","0.0","0.0"
"10354","16:25:55.889","0.0","0.0"
"10354","16:25:55.889","0.0","0.0"
"10355","16:25:55.891","0.0","0.0"
"10355","16:25:55.891","0.0","0.0"
"10356","16:25:55.914","0.0","0.0"
"10356","16:25:55.914","0.0","0.0"
"10357","16:25:55.916","0.0","0.0"
"10357","16:25:55.916","0.0","0.0"
"10358","16:25:55.918","0.0","0.0"
"10358","16:25:55.918","0.0","0.0"
"10359","16:25:55.922","0.0","0.0"
"10359","16:25:55.922","0.0","0.0"
"10360","16:25:55.949","0.0","0.0"
"10360","16:25:55.949","0.0","0.0"
"10361","16:25:55.951","0.0","0.0"
"10361","16:25:55.951","0.0","0.0"
"10362","16:25:55.953","0.0","0.0"
"10362","16:25:55.953","0.0","0.0"
"10363","16:25:55.955","0.0","0.0"
"10363","16:25:55.957","0.0","0.0"
"10364","16:25:55.959","0.0","0.0"
"10364","16:25:55.959","0.0","0.0"
"10365","16:25:55.961","0.0","0.0"
"10365","16:25:55.962","0.0","0.0"
"10366","16:25:55.993","0.0","0.0"
"10366","16:25:55.995","0.0","0.0"
"10368","16:25:56.039","0.0","0.0"
"10368","16:25:56.039","0.0","0.0"
"10369","16:25:56.040","0.0","0.0"
"10369","16:25:56.040","0.0","0.0"
"10370","16:25:56.066","0.0","0.0"
"10370","16:25:56.066","0.0","0.0"
"10371","16:25:56.068","0.0","0.0"
"10371","16:25:56.068","0.0","0.0"
"10372","16:25:56.071","0.0","0.0"
"10372","16:25:56.071","0.0","0.0"
"10373","16:25:56.073","0.0","0.0"
"10373","16:25:56.073","0.0","0.0"
"10374","16:25:56.075","0.0","0.0"
"10374","16:25:56.075","0.0","0.0"
"10375","16:25:56.078","0.0","0.0"
"10375","16:25:56.078","0.0","0.0"
"10376","16:25:56.080","0.0","0.0"
"10376","16:25:56.080","0.0","0.0"
"10377","16:25:56.082","0.0","0.0"
"10377","16:25:56.082","0.0","0.0"
"10378","16:25:56.096","0.0","0.0"
"10378","16:25:56.096","0.0","0.0"
"10379","16:25:56.098","0.0","0.0"
"10379","16:25:56.098","0.0","0.0"
"10380","16:25:56.099","0.0","0.0"
"10380","16:25:56.100","0.0","0.0"
"10381","16:25:56.160","0.0","0.0"
"10381","16:25:56.160","0.0","0.0"
"10382","16:25:56.161","0.0","0.0"
"10382","16:25:56.162","0.0","0.0"
"10383","16:25:56.163","0.0","0.0"
"10383","16:25:56.163","0.0","0.0"
"10384","16:25:56.164","0.0","0.0"
"10384","16:25:56.166","0.0","0.0"
"10386","16:25:56.219","0.0","0.0"
"10386","16:25:56.224","0.0","0.0"
"10387","16:25:56.225","0.0","0.0"
"10387","16:25:56.226","0.0","0.0"
"10388","16:25:56.229","0.0","0.0"
"10388","16:25:56.229","0.0","0.0"
"10389","16:25:56.231","0.0","0.0"
"10389","16:25:56.231","0.0","0.0"
"10390","16:25:56.254","0.0","0.0"
"10390","16:25:56.254","0.0","0.0"
"10391","16:25:56.257","0.0","0.0"
"10391","16:25:56.257","0.0","0.0"
"10392","16:25:56.259","0.0","0.0"
"10392","16:25:56.260","0.0","0.0"
"10393","16:25:56.283","0.0","0.0"
"10393","16:25:56.283","0.0","0.0"
"10394","16:25:56.285","0.0","0.0"
"10394","16:25:56.285","0.0","0.0"
"10395","16:25:56.287","0.0","0.0"
"10395","16:25:56.287","0.0","0.0"
"10396","16:25:56.289","0.0","0.0"
"10396","16:25:56.289","0.0","0.0"
"10397","16:25:56.291","0.0","0.0"
"10397","16:25:56.291","0.0","0.0"
"10398","16:25:56.336","0.0","0.0"
"10398","16:25:56.336","0.0","0.0"
"10399","16:25:56.339","0.0","0.0"
"10399","16:25:56.339","0.0","0.0"
"10400","16:25:56.341","0.0","0.0"
"10400","16:25:56.341","0.0","0.0"
"10401","16:25:56.343","0.0","0.0"
"10401","16:25:56.343","0.0","0.0"
"10402","16:25:56.345","0.0","0.0"
"10402","16:25:56.347","0.0","0.0"
"10404","16:25:56.403","0.0","0.0"
"10404","16:25:56.403","0.0","0.0"
"10405","16:25:56.405","0.0","0.0"
"10405","16:25:56.405","0.0","0.0"
"10406","16:25:56.409","0.0","0.0"
"10406","16:25:56.412","0.0","0.0"
"10407","16:25:56.415","0.0","0.0"
"10407","16:25:56.415","0.0","0.0"
"10408","16:25:56.416","0.0","0.0"
"10408","16:25:56.416","0.0","0.0"
"10409","16:25:56.418","0.0","0.0"
"10409","16:25:56.418","0.0","0.0"
"10410","16:25:56.420","0.0","0.0"
"10410","16:25:56.420","0.0","0.0"
"10411","16:25:56.434","0.0","0.0"
"10411","16:25:56.434","0.0","0.0"
"10412","16:25:56.436","0.0","0.0"
"10412","16:25:56.436","0.0","0.0"
"10413","16:25:56.438","0.0","0.0"
"10413","16:25:56.438","0.0","0.0"
"10414","16:25:56.440","0.0","0.0"
"10414","16:25:56.440","0.0","0.0"
"10415","16:25:56.442","0.0","0.0"
"10415","16:25:56.442","0.0","0.0"
"10416","16:25:56.444","0.0","0.0"
"10416","16:25:56.444","0.0","0.0"
"10417","16:25:56.456","0.0","0.0"
"10417","16:25:56.456","0.0","0.0"
"10418","16:25:56.457","0.0","0.0"
"10418","16:25:56.458","0.0","0.0"
"10419","16:25:56.459","0.0","0.0"
"10419","16:25:56.460","0.0","0.0"
"10420","16:25:56.488","0.0","0.0"
"10420","16:25:56.490","0.0","0.0"
"10422","16:25:56.571","0.0","0.0"
"10422","16:25:56.571","0.0","0.0"
"10423","16:25:56.573","0.0","0.0"
"10423","16:25:56.574","0.0","0.0"
"10424","16:25:56.579","0.0","0.0"
"10424","16:25:56.579","0.0","0.0"
"10425","16:25:56.582","0.0","0.0"
"10425","16:25:56.582","0.0","0.0"
"10429","16:25:56.609","0.0","0.0"
"10429","16:25:56.612","0.0","0.0"
"10430","16:25:56.615","0.0","0.0"
"10430","16:25:56.615","0.0","0.0"
"10431","16:25:56.617","0.0","0.0"
"10431","16:25:56.618","0.0","0.0"
"10432","16:25:56.620","0.0","0.0"
"10432","16:25:56.620","0.0","0.0"
"10433","16:25:56.622","0.0","0.0"
"10433","16:25:56.622","0.0","0.0"
"10434","16:25:56.623","0.0","0.0"
"10434","16:25:56.623","0.0","0.0"
"10435","16:25:56.634","0.0","0.0"
"10435","16:25:56.635","0.0","0.0"
"10436","16:25:56.637","0.0","0.0"
"10436","16:25:56.637","0.0","0.0"
"10437","16:25:56.641","0.0","0.0"
"10437","16:25:56.641","0.0","0.0"
"10438","16:25:56.647","0.0","0.0"
"10438","16:25:56.649","0.0","0.0"
"10440","16:25:56.711","0.0","0.0"
"10440","16:25:56.711","0.0","0.0"
"10441","16:25:56.722","0.0","0.0"
"10441","16:25:56.722","0.0","0.0"
"10442","16:25:56.724","0.0","0.0"
"10442","16:25:56.724","0.0","0.0"
"10443","16:25:56.728","0.0","0.0"
"10443","16:25:56.728","0.0","0.0"
"10444","16:25:56.738","0.0","0.0"
"10444","16:25:56.738","0.0","0.0"
"10445","16:25:56.742","0.0","0.0"
"10445","16:25:56.742","0.0","0.0"
"10446","16:25:56.744","0.0","0.0"
"10446","16:25:56.744","0.0","0.0"
"10447","16:25:56.757","0.0","0.0"
"10447","16:25:56.757","0.0","0.0"
"10448","16:25:56.759","0.0","0.0"
"10448","16:25:56.759","0.0","0.0"
"10449","16:25:56.761","0.0","0.0"
"10449","16:25:56.761","0.0","0.0"
"10450","16:25:56.774","0.0","0.0"
"10450","16:25:56.774","0.0","0.0"
"10451","16:25:56.776","0.0","0.0"
"10451","16:25:56.776","0.0","0.0"
"10452","16:25:56.780","0.0","0.0"
"10452","16:25:56.780","0.0","0.0"
"10453","16:25:56.791","0.0","0.0"
"10453","16:25:56.791","0.0","0.0"
"10454","16:25:56.810","0.0","0.0"
"10454","16:25:56.810","0.0","0.0"
"10455","16:25:56.812","0.0","0.0"
"10455","16:25:56.812","0.0","0.0"
"10456","16:25:56.814","0.0","0.0"
"10456","16:25:56.840","0.0","0.0"
"10458","16:25:56.880","0.0","0.0"
"10458","16:25:56.880","0.0","0.0"
"10459","16:25:56.882","0.0","0.0"
"10459","16:25:56.882","0.0","0.0"
"10460","16:25:56.889","0.0","0.0"
"10460","16:25:56.889","0.0","0.0"
"10461","16:25:56.891","0.0","0.0"
"10461","16:25:56.891","0.0","0.0"
"10462","16:25:56.909","0.0","0.0"
"10462","16:25:56.909","0.0","0.0"
"10463","16:25:56.911","0.0","0.0"
"10463","16:25:56.911","0.0","0.0"
"10464","16:25:56.914","0.0","0.0"
"10464","16:25:56.914","0.0","0.0"
"10465","16:25:56.925","0.0","0.0"
"10465","16:25:56.926","0.0","0.0"
"10466","16:25:56.952","0.0","0.0"
"10466","16:25:56.953","0.0","0.0"
"10467","16:25:56.958","0.0","0.0"
"10467","16:25:56.958","0.0","0.0"
"10468","16:25:56.960","0.0","0.0"
"10468","16:25:56.960","0.0","0.0"
"10469","16:25:56.973","0.0","0.0"
"10469","16:25:56.973","0.0","0.0"
"10470","16:25:56.976","0.0","0.0"
"10470","16:25:56.976","0.0","0.0"
"10471","16:25:56.978","0.0","0.0"
"10471","16:25:56.978","0.0","0.0"
"10472","16:25:56.995","0.0","0.0"
"10472","16:25:56.995","0.0","0.0"
"10473","16:25:56.997","0.0","0.0"
"10473","16:25:56.997","0.0","0.0"
"10474","16:25:56.999","0.0","0.0"
"10474","16:25:57.009","0.0","0.0"
"10476","16:25:57.049","0.0","0.0"
"10476","16:25:57.049","0.0","0.0"
"10477","16:25:57.055","0.0","0.0"
"10477","16:25:57.056","0.0","0.0"
"10478","16:25:57.058","0.0","0.0"
"10478","16:25:57.058","0.0","0.0"
"10479","16:25:57.060","0.0","0.0"
"10479","16:25:57.060","0.0","0.0"
"10480","16:25:57.072","0.0","0.0"
"10480","16:25:57.073","0.0","0.0"
"10481","16:25:57.075","0.0","0.0"
"10481","16:25:57.075","0.0","0.0"
"10482","16:25:57.079","0.0","0.0"
"10482","16:25:57.079","0.0","0.0"
"10483","16:25:57.094","0.0","0.0"
"10483","16:25:57.094","0.0","0.0"
"10484","16:25:57.096","0.0","0.0"
"10484","16:25:57.097","0.0","0.0"
"10485","16:25:57.098","0.0","0.0"
"10485","16:25:57.098","0.0","0.0"
"10486","16:25:57.109","0.0","0.0"
"10486","16:25:57.110","0.0","0.0"
"10487","16:25:57.112","0.0","0.0"
"10487","16:25:57.112","0.0","0.0"
"10488","16:25:57.128","0.0","0.0"
"10488","16:25:57.128","0.0","0.0"
"10489","16:25:57.130","0.0","0.0"
"10489","16:25:57.130","0.0","0.0"
"10490","16:25:57.132","0.0","0.0"
"10490","16:25:57.132","0.0","0.0"
"10491","16:25:57.134","0.0","0.0"
"10491","16:25:57.134","0.0","0.0"
"10492","16:25:57.145","0.0","0.0"
"10492","16:25:57.146","0.0","0.0"
"10494","16:25:57.217","0.0","0.0"
"10494","16:25:57.217","0.0","0.0"
"10495","16:25:57.223","0.0","0.0"
"10495","16:25:57.223","0.0","0.0"
"10496","16:25:57.225","0.0","0.0"
"10496","16:25:57.225","0.0","0.0"
"10497","16:25:57.227","0.0","0.0"
"10497","16:25:57.227","0.0","0.0"
"10498","16:25:57.240","0.0","0.0"
"10498","16:25:57.240","0.0","0.0"
"10499","16:25:57.242","0.0","0.0"
"10499","16:25:57.242","0.0","0.0"
"10500","16:25:57.244","0.0","0.0"
"10500","16:25:57.244","0.0","0.0"
"10501","16:25:57.260","0.0","0.0"
"10501","16:25:57.260","0.0","0.0"
"10502","16:25:57.278","0.0","0.0"
"10502","16:25:57.278","0.0","0.0"
"10503","16:25:57.280","0.0","0.0"
"10503","16:25:57.280","0.0","0.0"
"10504","16:25:57.282","0.0","0.0"
"10504","16:25:57.282","0.0","0.0"
"10505","16:25:57.313","0.0","0.0"
"10505","16:25:57.313","0.0","0.0"
"10506","16:25:57.315","0.0","0.0"
"10506","16:25:57.316","0.0","0.0"
"10507","16:25:57.317","0.0","0.0"
"10507","16:25:57.318","0.0","0.0"
"10508","16:25:57.320","0.0","0.0"
"10508","16:25:57.320","0.0","0.0"
"10509","16:25:57.323","0.0","0.0"
"10509","16:25:57.323","0.0","0.0"
"10510","16:25:57.329","0.0","0.0"
"10510","16:25:57.331","0.0","0.0"
"10512","16:25:57.385","0.0","0.0"
"10512","16:25:57.385","0.0","0.0"
"10513","16:25:57.390","0.0","0.0"
"10513","16:25:57.390","0.0","0.0"
"10514","16:25:57.392","0.0","0.0"
"10514","16:25:57.392","0.0","0.0"
"10515","16:25:57.394","0.0","0.0"
"10515","16:25:57.394","0.0","0.0"
"10516","16:25:57.411","0.0","0.0"
"10516","16:25:57.411","0.0","0.0"
"10517","16:25:57.413","0.0","0.0"
"10517","16:25:57.413","0.0","0.0"
"10518","16:25:57.415","0.0","0.0"
"10518","16:25:57.415","0.0","0.0"
"10519","16:25:57.448","0.0","0.0"
"10519","16:25:57.448","0.0","0.0"
"10520","16:25:57.450","0.0","0.0"
"10520","16:25:57.450","0.0","0.0"
"10521","16:25:57.451","0.0","0.0"
"10521","16:25:57.452","0.0","0.0"
"10522","16:25:57.464","0.0","0.0"
"10522","16:25:57.465","0.0","0.0"
"10523","16:25:57.467","0.0","0.0"
"10523","16:25:57.467","0.0","0.0"
"10524","16:25:57.469","0.0","0.0"
"10524","16:25:57.469","0.0","0.0"
"10525","16:25:57.479","0.0","0.0"
"10525","16:25:57.479","0.0","0.0"
"10526","16:25:57.481","0.0","0.0"
"10526","16:25:57.482","0.0","0.0"
"10527","16:25:57.498","0.0","0.0"
"10527","16:25:57.498","0.0","0.0"
"10528","16:25:57.500","0.0","0.0"
"10528","16:25:57.506","0.0","0.0"
"10530","16:25:57.556","0.0","0.0"
"10530","16:25:57.556","0.0","0.0"
"10531","16:25:57.574","0.0","0.0"
"10531","16:25:57.574","0.0","0.0"
"10532","16:25:57.576","0.0","0.0"
"10532","16:25:57.577","0.0","0.0"
"10533","16:25:57.578","0.0","0.0"
"10533","16:25:57.579","0.0","0.0"
"10534","16:25:57.580","0.0","0.0"
"10534","16:25:57.580","0.0","0.0"
"10535","16:25:57.593","0.0","0.0"
"10535","16:25:57.594","0.0","0.0"
"10536","16:25:57.596","0.0","0.0"
"10536","16:25:57.596","0.0","0.0"
"10537","16:25:57.613","0.0","0.0"
"10537","16:25:57.613","0.0","0.0"
"10538","16:25:57.615","0.0","0.0"
"10538","16:25:57.615","0.0","0.0"
"10539","16:25:57.618","0.0","0.0"
"10539","16:25:57.618","0.0","0.0"
"10540","16:25:57.620","0.0","0.0"
"10540","16:25:57.620","0.0","0.0"
"10541","16:25:57.622","0.0","0.0"
"10541","16:25:57.622","0.0","0.0"
"10542","16:25:57.635","0.0","0.0"
"10542","16:25:57.635","0.0","0.0"
"10543","16:25:57.637","0.0","0.0"
"10543","16:25:57.637","0.0","0.0"
"10544","16:25:57.654","0.0","0.0"
"10544","16:25:57.654","0.0","0.0"
"10545","16:25:57.658","0.0","0.0"
"10545","16:25:57.658","0.0","0.0"
"10546","16:25:57.661","0.0","0.0"
"10546","16:25:57.663","0.0","0.0"
"10548","16:25:57.722","0.0","0.0"
"10548","16:25:57.723","0.0","0.0"
"10549","16:25:57.742","0.0","0.0"
"10549","16:25:57.743","0.0","0.0"
"10550","16:25:57.760","0.0","0.0"
"10550","16:25:57.760","0.0","0.0"
"10551","16:25:57.766","0.0","0.0"
"10551","16:25:57.766","0.0","0.0"
"10552","16:25:57.774","0.0","0.0"
"10552","16:25:57.774","0.0","0.0"
"10553","16:25:57.780","0.0","0.0"
"10553","16:25:57.781","0.0","0.0"
"10554","16:25:57.783","0.0","0.0"
"10554","16:25:57.783","0.0","0.0"
"10555","16:25:57.798","0.0","0.0"
"10555","16:25:57.798","0.0","0.0"
"10556","16:25:57.800","0.0","0.0"
"10556","16:25:57.801","0.0","0.0"
"10557","16:25:57.803","0.0","0.0"
"10557","16:25:57.803","0.0","0.0"
"10558","16:25:57.808","0.0","0.0"
"10558","16:25:57.808","0.0","0.0"
"10559","16:25:57.826","0.0","0.0"
"10559","16:25:57.826","0.0","0.0"
"10560","16:25:57.829","0.0","0.0"
"10560","16:25:57.829","0.0","0.0"
"10561","16:25:57.831","0.0","0.0"
"10561","16:25:57.832","0.0","0.0"
"10562","16:25:57.836","0.0","0.0"
"10562","16:25:57.836","0.0","0.0"
"10563","16:25:57.838","0.0","0.0"
"10563","16:25:57.838","0.0","0.0"
"10564","16:25:57.850","0.0","0.0"
"10564","16:25:57.852","0.0","0.0"
"10566","16:25:57.911","0.0","0.0"
"10566","16:25:57.911","0.0","0.0"
"10567","16:25:57.914","0.0","0.0"
"10567","16:25:57.914","0.0","0.0"
"10568","16:25:57.924","0.0","0.0"
"10568","16:25:57.924","0.0","0.0"
"10569","16:25:57.927","0.0","0.0"
"10569","16:25:57.927","0.0","0.0"
"10570","16:25:57.947","0.0","0.0"
"10570","16:25:57.948","0.0","0.0"
"10571","16:25:57.950","0.0","0.0"
"10571","16:25:57.950","0.0","0.0"
"10572","16:25:57.952","0.0","0.0"
"10572","16:25:57.952","0.0","0.0"
"10573","16:25:57.971","0.0","0.0"
"10573","16:25:57.971","0.0","0.0"
"10574","16:25:57.973","0.0","0.0"
"10574","16:25:57.973","0.0","0.0"
"10575","16:25:57.976","0.0","0.0"
"10575","16:25:57.976","0.0","0.0"
"10576","16:25:57.980","0.0","0.0"
"10576","16:25:57.980","0.0","0.0"
"10577","16:25:57.994","0.0","0.0"
"10577","16:25:57.994","0.0","0.0"
"10578","16:25:57.996","0.0","0.0"
"10578","16:25:57.996","0.0","0.0"
"10579","16:25:57.998","0.0","0.0"
"10579","16:25:57.998","0.0","0.0"
"10580","16:25:58.000","0.0","0.0"
"10580","16:25:58.000","0.0","0.0"
"10581","16:25:58.002","0.0","0.0"
"10581","16:25:58.003","0.0","0.0"
"10582","16:25:58.015","0.0","0.0"
"10582","16:25:58.016","0.0","0.0"
"10584","16:25:58.080","0.0","0.0"
"10584","16:25:58.080","0.0","0.0"
"10585","16:25:58.082","0.0","0.0"
"10585","16:25:58.083","0.0","0.0"
"10586","16:25:58.090","0.0","0.0"
"10586","16:25:58.090","0.0","0.0"
"10587","16:25:58.093","0.0","0.0"
"10587","16:25:58.093","0.0","0.0"
"10588","16:25:58.114","0.0","0.0"
"10588","16:25:58.114","0.0","0.0"
"10589","16:25:58.115","0.0","0.0"
"10589","16:25:58.116","0.0","0.0"
"10590","16:25:58.117","0.0","0.0"
"10590","16:25:58.117","0.0","0.0"
"10591","16:25:58.158","0.0","0.0"
"10591","16:25:58.159","0.0","0.0"
"10592","16:25:58.160","0.0","0.0"
"10592","16:25:58.161","0.0","0.0"
"10593","16:25:58.163","0.0","0.0"
"10593","16:25:58.164","0.0","0.0"
